ECG_Raw
-417
-14146
-13540
-3279
15714
-4692
-5860
3531
3733
-325
-7706
-9828
-2235
29788
-992
6479
3408
-7559
-3303
32643
26228
831
-30624
-23136
-11917
6720
11445
9454
-8520
-11069
-7730
-3136
-2448
3003
16916
9554
-4179
-12517
-7387
6996
16657
5735
-4273
-11216
10568
-29287
-13353
14902
9231
-10884
-16399
-16280
-4239
2104
5070
-260
-4888
-7976
-7496
-5193
-2815
-847
-1558
-2734
-4312
-4421
-4176
-3213
-2926
-2959
-3038
-3313
-3105
-2777
-2636
-2557
-1682
-1595
-919
-966
-1330
-1380
-1349
-1337
-1345
-1302
-1052
-884
-721
-361
-144
0
-265
-511
-562
-227
-329
-700
-1193
-1073
-935
-1129
-1337
-1526
-1755
-1778
-2091
-2420
-2586
-2403
-2576
-2688
-2645
-2490
-2551
-2606
-2321
-2059
-1881
-1828
-1781
-1688
-1644
-1672
-1666
-1719
-1816
-1808
-1428
-1459
-1766
-2154
-1905
-1656
-2025
-2286
-2241
-1945
-2669
-2707
-2323
-1873
-2002
-2068
-2004
-1878
-2079
-2310
-2099
-1775
-1595
-1607
-1480
-1232
-954
-968
-987
-958
-951
-953
-898
-723
-315
848
1143
1257
1914
2406
2602
1969
1625
1364
291
-604
-3342
-2238
-1720
-1345
-1463
-1630
-1659
-1687
-1813
-1978
-1958
-1984
-2068
-1955
-1839
-1945
-1911
-1679
-1416
-1570
-1639
-1154
-1072
-1276
-1537
-1389
-1355
-2008
-2258
-2208
-1574
-1248
-964
-435
605
1219
1589
1628
2021
2207
2138
1663
1693
1862
1785
1624
1689
2249
2144
1664
954
1105
1296
975
803
916
1378
1305
1105
846
590
165
-302
-128
56
-47
-38
140
-118
-530
-563
-536
-137
-143
-405
-280
38
221
-43
-166
567
849
706
73
98
171
-448
-856
-999
-923
-1045
-1171
-996
-883
-945
-1188
-1068
-902
-1220
-1582
-1714
-1394
-1447
-1842
-1975
-1657
-1273
-1509
-1516
-841
-1118
-1355
-1272
-1186
-1116
-1145
-1205
-1197
-1162
-1151
-1112
-1185
-1387
-1542
-1238
-957
-1362
-1636
-1533
-859
-855
-1335
-1169
-756
-287
-538
-805
-973
-843
-761
-1152
-1331
-1212
-459
-671
-807
-450
-63
-176
-564
-811
-690
-671
-821
-1090
-1016
-893
-810
-769
-659
-581
-747
-878
-429
-101
-701
-1482
-1342
-1244
-1124
-950
-789
-721
-765
-1084
-1302
-1437
-1331
-998
-565
-734
-673
-606
-724
-1023
-1303
-1455
-1515
-1519
-1425
-1196
-951
-859
-942
-1048
-1036
-951
-932
-1028
-1130
-1113
-1017
-944
-909
-853
-726
-582
-374
-17
121
272
630
1134
1579
1812
1898
2238
2331
2097
1542
929
437
7
-561
-1290
-1922
-2200
-2168
-2134
-2321
-2600
-2671
-2424
-2042
-1788
-1726
-1740
-1753
-1838
-2056
-2300
-2386
-2317
-2308
-2474
-2680
-2661
-2380
-2072
-1942
-1968
-2038
-2186
-2127
-2324
-1813
-1436
-1851
-2240
-2310
-2148
-2061
-2194
-2368
-2318
-1965
-1557
-1383
-1455
-1532
-1408
-1163
-1065
-1249
-1526
-1610
-1431
-1217
-1205
-1350
-1413
-1229
-901
-691
-821
-865
-807
-799
-935
-1096
-1114
-1000
-978
-1176
-1420
-1404
-1088
-765
-617
-938
-878
-958
-1092
-1114
-978
-818
-780
-897
-1079
-1191
-1164
-1022
-887
-927
-1157
-1379
-1380
-1171
-999
-1045
-1191
-1059
-1012
-1173
-1397
-1452
-1360
-1341
-1509
-1699
-1676
-1426
-1153
-1057
-1161
-1330
-1420
-1375
-1267
-1245
-1463
-1906
-2308
-2390
-2164
-2186
-1507
-1722
-2282
-2285
-2165
-2162
-2396
-2720
-2907
-3034
-3261
-3410
-3240
-2836
-2556
-2594
-2715
-2591
-2205
-1834
-1733
-1839
-1912
-1820
-1683
-1728
-2056
-2527
-2834
-2753
-2386
-2080
-2111
-2359
-2418
-2077
-1544
-1241
-1350
-1656
-1882
-1970
-2004
-2022
-1660
-860
-799
-1134
-1392
-1448
-1402
-1481
-1766
-2069
-2125
-1925
-1703
-1660
-1752
-1765
-1613
-1409
-1275
-1232
-1242
-1304
-1451
-1629
-1717
-1674
-1591
-1574
-1602
-1577
-1491
-1458
-1555
-1643
-1558
-1635
-1949
-2234
-2197
-1880
-1619
-1603
-1662
-1507
-1134
-874
-942
-1460
-1451
-1614
-1588
-1366
-1111
-1034
-1185
-1408
-1506
-1401
-1233
-1217
-1372
-1482
-1339
-1044
-891
-985
-1081
-871
-208
-433
-887
-1140
-1111
-1112
-1407
-1888
-2214
-2232
-2107
-2042
-2014
-1899
-1665
-1414
-1252
-1202
-1238
-1303
-1322
-1224
-1087
-1691
-1990
-1890
-1472
-1263
-1350
-1451
-1322
-1066
-973
-1410
-1468
-1268
-965
-733
-652
-702
-793
-835
-740
-507
-250
-102
-3
270
886
1769
2596
3096
3280
3371
3525
3629
3436
2811
1869
886
63
-586
-1193
-1836
-2422
-2760
-2739
-2485
-2249
-1579
-2036
-1997
-1807
-1658
-1722
-1935
-2024
-1807
-1435
-1255
-1456
-1604
-1396
-1991
-2080
-1938
-1741
-1662
-1721
-1759
-1635
-1382
-1152
-1095
-1188
-1310
-1401
-1487
-1610
-1762
-1849
-1788
-1623
-1421
-1210
-857
-846
-924
-1216
-878
-735
-764
-705
-621
-647
-776
-892
-906
-863
-809
-713
-549
-395
-342
-336
-234
-29
77
-49
-235
-205
89
334
228
-120
-337
-256
-100
-189
-524
-805
-436
-97
64
71
50
68
94
104
102
74
-39
-245
-453
-512
-85
-552
-610
-478
-511
-748
-1019
-1002
-617
-156
-12
-236
-515
-533
-317
-166
-264
-481
-580
-516
-460
-553
-726
-747
-693
-750
-880
-960
-947
-952
-1074
-1264
-1395
-1406
-1356
-1311
-1242
-1069
-824
-649
-624
-682
-739
-783
-885
-894
-839
-457
-374
-470
-686
-893
-958
-886
-777
-725
-728
-695
-564
-61
-467
-869
-708
-639
-607
-610
-605
-490
-258
-25
58
-18
-77
-381
-399
-616
-654
-671
-792
-1033
-1242
-1244
-1051
-843
-768
-771
-689
-506
-328
-277
-349
-478
-618
-790
-961
-1053
-1040
-990
-1004
-1099
-1158
-1073
-848
-589
-437
-479
-682
-903
-958
-779
-487
-303
-329
-450
-491
-423
-356
-362
-1372
-967
-649
-860
-1048
-985
-667
-295
-129
-313
-751
-1116
-1135
-823
-518
-844
-1167
-1243
-1103
-958
-923
-948
-984
-1048
-1102
-1067
-940
-872
-971
-1104
-1041
-775
-590
-696
-912
-894
-587
-368
-577
-1068
-1381
-1293
-1039
-975
-1139
-1257
-1111
-648
-160
2383
3559
3172
2184
1422
686
33
-624
-1323
-1893
-2100
-1975
-1810
-1852
-2016
-2035
-1829
-1605
-1615
-1877
-2192
-2363
-2371
-2299
-2210
-2062
-1808
-1524
-1391
-1486
-1686
-1755
-1610
-1566
-1239
-1211
-1200
-1315
-1343
-1248
-1066
-893
-834
-905
-1008
-996
-839
-649
-583
-665
-775
-770
-640
-480
-382
-383
-480
-632
-744
-719
-553
-409
-452
-646
-734
-544
-201
-25
-176
-482
-638
-254
-382
-542
-554
-421
-258
-306
-278
-261
-520
-776
-737
-375
-20
17
-205
-332
-149
178
313
134
-168
-342
-312
-185
-86
-87
-180
-296
-314
-154
91
194
18
-324
-568
-574
-442
-420
-952
-1033
-744
-303
-70
-204
-507
-654
-544
-406
-470
-541
-952
-880
-1084
-1422
-1676
-1727
-1623
-1485
-1409
-1439
-1580
-1787
-1936
-1933
-1803
-1690
-1682
-1739
-1739
-1616
-1380
-1093
-884
-899
-1177
-1542
-1690
-1446
-1002
-762
-891
-1128
-1137
-934
-845
-1096
-1506
-1743
-1714
-1422
-855
-1324
-770
-443
-274
-231
-472
-930
-1303
-1334
-1158
-1157
-1457
-1767
-1716
-1312
-944
-905
-1156
-986
-739
-631
-715
-911
-1104
-1157
-998
-717
-520
-546
-701
-742
-567
-376
-423
-693
-904
-830
-569
-445
-649
-990
-1099
-823
-388
-268
-340
-578
-749
-898
-872
-660
-465
-477
-726
-596
-331
-127
-85
-160
-283
-421
-550
-619
-592
-499
-407
-381
-439
-547
-638
-623
-514
-430
-490
-684
-841
-794
-561
-333
-274
-350
-408
-354
-251
-209
-242
-253
-224
-241
-66
-439
-397
-796
-1113
-1058
-707
-439
-565
-939
-1153
-994
-665
-530
-713
-949
-902
-566
-247
-225
-441
-585
-466
-191
-45
-153
-400
-572
-569
-457
-342
-297
-298
-274
-164
14
150
41
59
312
685
967
1121
1358
4036
4355
3830
3732
3545
2914
1850
796
124
-228
-582
-1056
-1466
-1629
-1635
-1674
-1721
-1583
-1223
-919
-962
-1278
-1460
-1242
-804
-529
-581
-776
-866
-1089
-1151
-1048
-949
-1061
-1311
-1364
-1021
-500
-203
-270
-469
-523
-439
-403
-532
-712
-838
-260
-199
-230
-88
148
304
243
43
-55
83
320
370
150
-97
-88
151
314
210
-40
-175
-100
70
158
135
74
34
5
-26
-73
-139
-184
-158
-49
54
71
24
28
142
279
297
169
-8
-130
-159
-137
-231
-157
-48
-105
-195
-222
-138
-10
14
-119
-281
-307
-187
-65
-73
-107
-183
-250
-211
-127
-186
-453
-748
-828
-672
-477
-428
-484
-519
-478
-403
-357
-357
-379
-432
-528
-663
-797
-861
-840
-792
-829
-1010
-1215
-1251
-1071
-1542
-1375
-1325
-1095
-1038
-1214
-1468
-1602
-1598
-1600
-1745
-1974
-2114
-2059
-1879
-1737
-1717
-1739
-1691
-1552
-1396
-1320
-1348
-1454
-1604
-1728
-1768
-1715
-1628
-1601
-1670
-1764
-1783
-1684
-1525
-1402
-1368
-1395
-1333
-1219
-1115
-1052
-1009
-993
-1118
-1282
-1369
-976
-570
-449
-575
-666
-588
-490
-577
-816
-983
-1001
-1062
-1329
-1645
-1669
-1309
-856
-664
-754
-847
-723
-442
-241
-304
-604
-951
-1012
-1001
-1183
-1383
-1333
-1001
-649
-580
-783
-961
-913
-710
-564
-564
-581
-525
-484
-542
-1034
-644
-685
-736
-644
-476
-403
-467
-539
-510
-446
-477
-609
-698
-628
-401
-124
89
193
194
136
215
285
230
27
-184
-236
-121
-4
-13
-127
-233
-265
-238
-181
-99
2
81
134
232
429
638
685
-297
-175
-93
171
564
796
654
314
146
286
448
306
416
267
1110
545
444
613
819
821
628
440
466
743
1072
1220
1145
1053
1156
1431
1688
1803
1909
2240
2864
3573
4097
4382
4575
4819
3370
1220
-130
-482
-554
-555
-652
-819
-894
-841
-728
-605
-467
-204
-284
-473
-562
-471
-395
-545
-845
-951
-695
-335
-266
-511
-679
-477
8
-203
-406
-35
2
-265
-485
-369
-30
120
-461
-606
-499
-567
-306
-314
-595
-780
-726
-530
-397
-560
-358
197
178
-47
-237
-180
88
287
223
7
-62
69
134
-63
-331
-322
209
39
-327
-44
327
340
92
-47
-8
-64
-383
-694
-616
-197
75
-109
-539
148
345
474
278
184
418
346
42
-212
-152
145
350
36
-38
143
335
92
-113
-121
-36
-48
-216
-402
-457
-383
-276
-321
-522
-778
-955
-951
-825
-778
-937
-1200
-1306
-1151
-881
-691
-647
-727
-877
-1307
-812
-1178
-1325
-1339
-1305
-1283
-1247
-1195
-1178
-1195
-1172
-1060
-783
-785
-795
-696
-516
-417
-521
-909
-882
-758
-805
-965
-1027
-814
-728
-688
-645
-613
-647
-740
-790
-737
-643
-268
-651
-652
-133
208
159
201
300
285
134
11
29
69
-31
-216
-257
-58
162
112
-191
-426
-312
72
393
431
269
148
222
473
738
841
706
432
260
640
298
417
216
379
269
287
1150
1278
957
350
478
621
538
247
-71
-276
-322
-237
-82
43
40
-57
-114
-49
73
95
-26
-158
-174
-135
-223
-462
-607
-361
-217
-606
-709
-507
-165
47
49
10
-995
-466
-476
-330
37
345
309
19
-134
324
304
-3
94
611
868
725
569
847
1538
2234
2627
2838
3179
4329
4637
4619
4057
3566
2869
1180
403
-313
-1473
-1701
-1661
-1136
-853
-1133
-1237
-702
-752
-1205
-1170
-1034
-1153
-1264
-1219
-948
-885
-856
-880
-911
-857
-648
-757
-943
-714
-292
9
-77
-167
-169
-111
-97
-153
-581
-621
-345
270
172
288
119
-167
-67
236
436
249
100
152
257
364
453
421
410
556
524
359
97
139
169
-47
-82
238
413
581
157
198
369
322
116
-1
211
235
-231
-345
-421
-441
-412
-426
-537
-556
-156
-157
-443
-853
-692
-545
-857
-1037
-1038
-873
-934
-1092
-1282
-1423
-1460
-1410
-1344
-1312
-1280
-1141
-725
-757
-975
-1172
-1059
-1029
-1411
-1512
-1033
-1115
-1015
-991
-1031
-1085
-1057
-912
-770
-1042
-1003
-888
-883
-1026
-1130
-839
-785
-907
-970
-771
-438
-297
-751
-847
-692
-501
-503
-724
-997
-1114
-978
-707
-524
-794
-949
-919
-800
-768
-849
-930
-502
-684
-700
-606
-529
-453
-443
-385
-298
-303
-517
-1100
-1059
-858
-751
-800
-846
-704
-155
-92
-178
-400
-477
-551
-602
-619
-628
-644
-679
-659
-624
-601
-572
-492
-351
-201
-140
-165
-167
90
120
16
683
878
678
400
284
529
503
351
311
505
770
840
485
550
809
1002
968
840
843
1160
1122
954
915
995
960
884
1138
1426
1485
1294
1145
1303
1870
1760
1577
2474
2954
3002
3237
3580
3642
3794
3819
3855
3925
3921
3932
3953
3991
4191
5171
5701
6170
7156
7598
7850
7888
7744
7396
6138
5453
4785
3371
2835
2526
1993
1651
1505
1933
2060
2278
1936
1672
1350
1117
1314
1385
1266
1253
1398
1809
1765
1550
1165
1091
1021
1005
1178
1338
1207
1179
1365
1621
1399
1231
1706
1870
1733
1732
2126
2360
1877
1770
1971
1818
2024
2137
2081
1976
2066
2118
1852
1797
1934
2131
1939
1713
1703
1719
1570
1206
1315
1587
1738
1505
1360
1631
1583
1268
845
971
1041
819
857
945
560
353
414
568
293
399
256
-92
-151
43
263
-11
-285
-43
165
88
-475
-413
-98
199
255
88
-130
-276
-390
-515
-626
-652
-684
-788
-762
-487
-211
-132
-313
-607
-793
-664
-667
-849
-1113
-936
-704
-610
-749
-727
-687
-773
-1000
-876
-723
-746
-895
-574
-416
-186
-238
-264
-178
-215
-364
-419
-388
-440
-637
-840
-873
-762
-710
-794
-841
-689
-415
-252
-264
-114
-931
-892
-485
-504
-874
-873
-784
-899
-1137
-1412
-1257
-1042
-773
-527
-309
-318
-517
-630
-209
-141
-417
-794
-909
-645
-254
-62
-148
-304
-316
-177
-53
-57
-146
-207
-234
-293
-404
-211
-192
50
55
41
-20
-180
-348
-341
-144
-29
-256
-756
-1115
-728
-333
-208
-323
-443
-376
-116
135
127
-201
-624
-822
-690
-462
-408
-515
-528
-302
-13
52
-144
-389
-486
-427
-330
-250
-186
-124
-46
113
400
723
897
1218
2765
3674
3627
2931
2324
1607
824
60
-563
-966
-1329
-1430
-1446
-1325
-1117
-971
-985
-1219
-1206
-1133
-1163
-1379
-1641
-1679
-1384
-970
-789
-974
-1278
-1324
-1023
-680
-962
-1305
-1348
-802
-767
-979
-1165
-924
-906
-1017
-842
-689
-645
-735
-702
-659
-688
-689
-688
-764
-926
-1070
-1090
-925
-979
-1085
-903
-628
-427
-467
-557
-604
-645
-708
-768
-819
-800
-721
-350
-187
-141
-225
-180
-548
-488
-640
-618
-425
-452
-624
-992
-982
-903
-1013
-1208
-1376
-1360
-1165
-943
-774
-813
-774
-528
-560
-751
-1203
-1339
-1417
-1392
-1327
-1281
-1185
-1184
-1329
-1784
-1771
-1645
-1335
-1769
-1847
-1817
-1814
-1792
-1645
-1493
-1555
-1652
-1645
-1470
-1479
-1533
-1533
-1462
-1366
-1278
-1189
-1082
-1014
-1058
-1198
-1311
-1316
-1259
-1254
-1329
-1362
-1247
-1040
-861
-723
-551
-361
-588
-695
-592
-435
-393
-379
-274
-713
-970
-868
-460
-113
-87
-235
-219
81
412
453
188
-78
-69
177
423
507
474
469
593
816
1035
1109
973
726
597
733
1029
1213
1124
896
913
1121
1211
1113
919
762
712
776
881
928
887
855
956
1152
1533
1018
1443
1425
1224
1124
1228
1359
1333
1190
1098
1096
1104
1091
1080
1029
847
557
403
563
879
943
200
138
436
671
510
71
-218
-149
69
158
98
113
312
541
601
518
490
634
776
679
346
58
-156
605
777
445
193
217
449
655
658
500
418
626
1111
1637
1986
2178
2417
2777
3215
3054
2789
2533
2223
1719
994
220
-405
-827
-1448
-1779
-1994
-1916
-1540
-1110
-905
-960
-1015
-860
-597
-532
-753
-955
-812
-413
-195
-404
-761
-1368
-1029
-899
-780
-809
-914
-885
-1253
-901
-872
-769
-668
-614
-467
-50
138
-347
-465
-305
-86
-74
-239
-273
-65
145
62
-273
-512
-441
-271
-323
-596
-756
-610
-372
-383
-640
-836
-778
-635
-692
-940
-1103
-1018
-781
-921
-1054
-1034
-901
-811
-810
-845
-899
-1010
-1191
-1345
-1361
-1250
-1143
-1125
-1167
-989
-1266
-1477
-1569
-1554
-1563
-1727
-1961
-2046
-1917
-1756
-1807
-2064
-2222
-1996
-1815
-1782
-1855
-1927
-2099
-2334
-2498
-2528
-2602
-2830
-3050
-3090
-2911
-2678
-2597
-2785
-3104
-3294
-3219
-2996
-2900
-3028
-3214
-3219
-3019
-2845
-2877
-3003
-2697
-2594
-2692
-2593
-2319
-2146
-2243
-2456
-2474
-2022
-2051
-2263
-2387
-2291
-2133
-2143
-2275
-2309
-2159
-1956
-1880
-1893
-1833
-1643
-1483
-1522
-1691
-1783
-1712
-1621
-1662
-1770
-1747
-1584
-1510
-1678
-1902
-1856
-1515
-1237
-1339
-1658
-1750
-1687
-1389
-1053
-1120
-1182
-1223
-1301
-1384
-1391
-1314
-1256
-1289
-1337
-1272
-1082
-903
-872
-991
-1136
-1177
-1085
-921
-777
-707
-710
-734
-719
-660
-607
-620
-686
-704
-621
-502
-467
-550
-629
-526
-248
-40
-166
-595
-962
-934
-559
-117
-158
-386
-393
-501
-663
-679
-484
-242
-166
-263
-331
-235
-72
-31
-113
-132
46
299
354
166
6
158
566
871
837
613
543
750
1136
1169
1360
1763
2147
2346
2502
2894
3560
4187
4442
4369
4326
4593
5072
5375
5213
4653
2535
606
475
226
246
594
979
1108
999
897
933
1040
1078
1034
1145
1328
1479
1542
1512
1412
1199
1156
1170
1168
1081
931
828
1108
1292
1283
982
1104
1410
1649
1638
1433
1243
1166
1161
1142
1098
1373
1598
1436
1266
1271
1486
1736
1823
1730
1614
1656
1851
1990
1892
1273
1204
1380
1615
1729
1693
1647
1698
1781
1763
1604
1391
1199
1029
868
777
859
1097
1307
1315
1172
1104
1239
1413
1364
1044
668
491
552
683
714
661
639
985
1058
993
867
891
1198
1239
1150
1004
904
961
1181
1411
1436
1239
1079
1170
1350
1252
800
397
478
899
1073
687
109
-74
246
589
474
-24
-436
-465
-264
-134
-185
-299
-321
-230
-97
-19
-19
-88
-180
-405
-352
-72
-149
-399
-597
-520
-242
-86
-278
-656
-847
-702
-437
-345
-438
-491
-374
-189
-110
-144
-169
-127
-94
-161
-327
-471
-511
-460
-357
-257
-219
-207
-160
-34
120
194
117
140
144
8
-211
-289
-95
207
326
176
94
-250
-391
-552
-330
-373
-569
-722
-670
-460
-308
-339
-484
-593
-564
-399
-232
-238
-491
-829
-953
-748
-454
-432
-742
-1059
-806
-621
-675
-783
-692
-426
-265
-386
-615
-656
-440
-175
-146
-423
-772
-535
-582
79
-102
-477
-675
-560
-310
-145
-86
-45
-24
-99
-260
-358
-298
-185
-232
-478
-732
-796
-491
-457
-392
-380
-509
-725
-856
-832
-775
-872
-1077
-1150
-937
-596
-438
-545
-670
-605
-451
-502
-829
-1146
-1166
-958
-833
-970
-850
-1247
-1098
-719
-559
-831
-1216
-1256
-925
-634
-703
-978
-833
-582
-550
-687
-760
-685
-601
-618
-707
-772
-777
-774
-788
-785
-721
-591
-393
-161
27
112
151
321
699
1106
1279
1222
1243
1633
2343
2989
3272
3682
2188
642
17
-1927
-2034
-2061
-2201
-2405
-2520
-2347
-2241
-2182
-2139
-2107
-2108
-2139
-2077
-1954
-1833
-1747
-1667
-1571
-1517
-1739
-1884
-1930
-1935
-2028
-2204
-2319
-2010
-1879
-1940
-2066
-2041
-1830
-1619
-1722
-1352
-1638
-1358
-1351
-1399
-1388
-1235
-903
-463
72
-31
-186
-181
-25
82
-13
-221
-341
-293
-196
-187
-255
-283
-200
25
41
77
178
299
364
387
414
450
409
284
204
309
562
730
447
399
587
434
177
620
794
580
190
-23
44
185
164
-4
-100
194
233
93
118
377
463
219
-166
-333
-178
60
82
-130
-339
-327
-157
-36
-65
-166
-243
-325
-470
-879
-1003
-1137
-1160
-1010
-801
-717
-786
-843
-1079
-798
-926
-888
-759
-649
-698
-930
-1223
-1367
-1286
-1089
-951
-953
-1020
-1061
-1031
-958
-881
-851
-921
-1123
-1344
-1378
-1141
-833
-765
-1006
-1236
-579
-144
-179
-603
-925
-809
-453
-331
-638
-1083
-1253
-676
-445
-400
171
-474
-541
-323
-274
-399
-422
-180
171
330
185
-88
-232
-170
2
120
81
-104
-285
-282
-18
298
-40
-134
138
504
598
368
104
42
101
65
-80
-105
107
360
391
250
242
528
847
839
515
235
243
368
637
265
539
148
-238
-236
55
206
5
-273
-266
6
179
35
-373
-221
-53
-93
-284
-401
-276
0
205
187
-14
-178
-120
125
334
304
72
-102
-70
52
43
-147
-326
-300
-135
-43
-111
-208
-145
70
117
392
-59
-211
-145
65
202
126
-92
129
396
498
448
395
430
541
678
814
909
867
641
339
171
-257
-131
-108
-160
-57
-26
-217
-505
-608
-434
-190
-140
-293
-439
-407
-212
23
-390
-308
-82
61
18
-116
-96
2988
2738
-39
-1456
-1272
-820
-1296
-1149
-1079
-981
-821
-643
-543
-554
-638
-768
-943
-1423
-1561
-1474
-1188
-864
-677
-632
-593
-457
-321
-376
-965
-1081
-1004
-946
-957
-827
-575
-362
-252
-176
47
50
-28
-73
-54
-103
-312
-551
-598
-398
324
232
454
478
361
288
340
400
351
286
399
675
830
308
96
209
676
656
532
524
650
741
725
620
553
621
741
535
294
230
354
430
270
-9
-99
158
584
864
841
639
475
126
368
687
526
371
412
579
651
517
254
19
-84
-39
104
279
366
302
148
58
114
223
213
46
-166
-308
-411
-828
-928
-774
-518
-465
-703
-920
-749
-211
212
100
-421
-808
-708
-307
-125
-408
-888
-1132
-1002
-743
-509
-555
-652
-510
-288
-132
-172
-356
-455
-304
23
209
45
-345
-615
-542
-241
-24
-139
-160
-14
209
397
536
615
587
432
261
257
459
696
769
672
572
573
616
575
462
418
527
692
741
648
559
783
832
1312
1181
935
811
872
979
1034
1064
1179
1160
1085
1063
1160
1295
1370
1387
1414
1492
1590
1645
1746
1803
1712
1553
1538
1755
2015
2065
1895
1758
1859
2105
2230
2035
2033
2123
2167
2107
2010
1957
2090
2213
2080
1906
2053
2057
2231
2297
2189
2021
2033
2276
2515
2200
1998
2084
2347
2459
2233
1856
1698
1870
1930
1855
1774
1795
1869
1752
1612
1505
1435
1365
1270
1144
1024
961
1019
1196
1381
1251
1122
747
766
742
1103
1159
1000
782
746
963
1229
1265
1033
747
657
826
1085
1224
1154
963
813
818
932
999
937
825
810
933
1090
1126
1059
1054
1209
1418
1503
1470
1515
1813
2291
3385
3867
4396
4692
4635
3659
1260
198
-269
-487
-430
-243
44
289
332
173
27
157
187
110
14
18
22
451
801
924
737
506
535
796
766
440
363
1041
1157
939
638
554
722
939
903
812
861
1258
1109
1483
1696
1563
1667
1901
1891
1170
1111
1390
1730
1637
1670
2078
2025
1807
1724
1786
1673
1231
1323
1622
1994
1902
1770
1845
1875
1718
1260
1321
1477
1247
1011
1231
1128
1186
1133
1040
1113
1341
1442
692
398
430
563
524
333
226
327
499
617
705
989
1036
924
747
587
427
233
110
153
293
317
-64
-28
225
306
5
-262
-377
-391
-337
-213
10
-417
-538
-490
-965
-1067
-833
-466
-307
-452
-674
-679
-441
-250
-378
-766
-1065
-1037
-809
-694
-797
-921
-825
-515
-227
-121
-157
-197
-219
-283
-396
-465
-419
-316
-272
-382
-317
-123
77
157
115
46
30
21
-91
-16
127
262
81
-18
43
155
196
145
48
-69
-180
-247
-258
-265
-366
-527
-599
-476
-258
-128
-163
-225
-155
34
167
105
-97
-236
-84
-41
-164
-377
-494
-403
-161
50
78
-69
-247
-304
-204
-45
47
-738
-761
-1482
-1676
-1536
-1175
-1331
-1460
-1347
-1107
-1085
-1420
-2022
-1852
-1601
-1512
-1578
-1601
-1455
-1162
-470
-307
-482
-958
-1420
-1526
-1256
-943
-919
-1181
-1420
-1376
-1064
-718
-583
-749
-1092
-1363
-1336
-1037
-787
-856
-1159
-1306
-1110
-1143
-814
-505
-343
-484
-842
-1178
-1352
-1333
-1160
-872
-940
-1014
-916
-641
-373
-269
-336
-447
-485
-447
-366
-287
-223
-191
-165
-113
-20
78
156
248
371
454
407
259
181
312
665
1141
1616
2504
2891
3225
1920
953
-589
-1293
-1588
-1987
-2361
-2369
-2082
-1878
-1927
-1924
-1775
-1307
-1302
-1489
-1548
-1322
-1238
-1643
-1674
-1474
-1291
-1395
-1380
-1005
-947
-985
-1044
-1104
-1187
-1205
-1186
-1201
-1122
-1044
-1026
-900
-799
-1047
-686
-658
-749
-669
-504
-392
-277
-241
-256
-260
-170
-134
-249
-193
-56
-50
-120
-74
56
-63
-225
-373
-357
-270
-80
107
127
-37
-95
173
342
102
-102
54
88
-11
-50
-136
-378
-308
-179
-486
-722
-686
-243
-303
-465
-476
-505
-664
-916
-1002
-1170
-1301
-1121
-1024
-1515
-1675
-1532
-1255
-1146
-1325
-1629
-1663
-1459
-1420
-1645
-1950
-2059
-2193
-1932
-1704
-1466
-1643
-1461
-1164
-1228
-1522
-1656
-1613
-1584
-1710
-1867
-1858
-1669
-1445
-934
-1290
-758
-1524
-1778
-1555
-1097
-1328
-1460
-794
-545
-581
-690
-682
-607
-618
-967
-592
-780
-462
-66
-452
-885
-657
-350
-331
-709
-640
-434
-196
-163
-112
-69
-72
-103
-129
-214
-303
-360
-366
-359
-373
-327
-112
204
342
125
-460
-262
30
4
-377
-708
-626
-222
77
38
400
525
573
817
771
562
559
833
674
447
465
766
1056
1089
961
968
1216
1484
1528
1364
1229
1280
1427
1253
1036
951
1025
1146
1242
1273
1283
1353
1481
1603
1647
1609
1598
1772
1717
1034
976
816
852
969
707
551
642
846
976
991
966
949
904
842
868
1074
1345
1479
1476
1600
2086
2797
3353
3521
3467
3502
3715
3926
3968
3875
3487
2993
459
-764
-509
-441
-318
-365
-493
-465
-523
-644
-527
-267
9
484
585
517
297
273
160
-193
-33
307
384
189
231
785
774
573
443
496
460
254
252
309
530
631
279
357
757
675
407
286
582
864
720
731
1095
1229
1210
995
1052
1188
1114
999
1076
1475
1319
994
1106
1488
1608
1032
1024
1356
1572
1226
987
1263
1308
962
955
904
1274
1678
1410
1012
952
1520
1366
912
766
1120
1250
790
795
980
849
564
373
258
137
40
111
521
435
183
137
316
340
167
-52
-139
-46
221
198
97
11
109
405
151
-194
-325
-154
85
69
-258
-586
-581
-231
80
-258
-539
-213
-92
-286
-575
-633
-403
-109
21
-1
-26
-1
10
-65
-195
-280
-285
-231
-156
-69
-9
-29
-108
-141
-36
163
267
172
-29
-118
26
-78
-136
-11
206
283
191
81
98
207
224
90
-61
-186
-224
-126
90
351
183
-74
-213
-67
47
2
-163
-300
-276
115
196
136
53
56
131
200
196
146
125
155
172
70
-126
-242
-393
319
171
-94
-60
431
283
185
208
281
304
125
131
285
494
580
490
379
509
522
431
667
981
1124
1069
1067
1277
1540
1225
880
736
1148
1716
2002
2185
1211
1717
2214
2100
2037
2194
2416
2418
2124
1599
1655
1693
1509
1617
1904
1961
1737
1777
2479
2283
1639
1158
1569
1790
1545
1095
886
1058
1395
1639
1714
1648
1095
823
803
1090
919
611
989
845
669
939
1337
1678
1928
2214
2958
3253
3509
4065
4161
4005
3400
3229
3146
2630
1952
1138
331
374
265
-712
-955
-837
-564
-677
-747
-549
-479
-469
-317
-183
-114
-95
39
61
-393
-437
-154
-127
-558
-413
-13
674
751
791
710
637
511
380
240
149
134
92
158
312
462
697
920
1165
1206
1039
888
616
432
307
227
123
69
447
1046
751
832
1436
1546
1498
1366
1246
1031
749
775
769
655
777
996
1138
1070
1041
902
757
731
1025
936
644
439
551
838
950
494
453
621
620
501
602
865
957
716
1027
768
562
476
317
-404
-614
-499
-190
8
-51
-244
-332
-297
-336
-160
-240
-298
-97
117
133
181
402
613
365
173
276
597
814
745
436
256
58
4
217
625
948
985
750
924
1213
1149
784
522
477
587
706
717
554
529
589
785
839
877
1031
1040
923
794
1050
1316
811
388
405
809
1095
903
473
770
1268
1513
1582
1628
1655
1931
2411
2235
2089
2604
2799
2686
2390
2533
2747
3052
3160
3176
2927
2958
3144
3036
2663
2481
2888
2874
2605
2578
2933
3110
2819
2931
3303
3490
3087
2764
2509
3067
2552
2457
2520
2317
2042
1910
1997
2043
1791
1613
1593
2007
2024
1781
1482
1693
1917
1896
1787
1650
1462
1721
1763
1524
1473
1996
2022
1808
1540
1522
1416
1332
1496
2229
2146
2441
2375
2087
1719
1847
2031
1992
1807
1697
1891
1976
1874
1679
1927
2280
2398
2284
2317
2503
2360
2189
2469
2873
3353
4399
4741
4828
4897
5086
5066
3758
2970
2491
-479
-683
-433
-226
89
287
175
-21
-26
-13
-64
-112
25
122
136
16
44
136
91
-93
-177
239
379
262
-38
83
196
-236
-205
34
49
263
353
584
496
368
483
643
725
662
650
715
886
855
744
647
734
836
898
910
956
966
854
701
497
464
443
441
536
721
1128
1131
928
420
467
674
824
498
254
34
-16
140
110
45
185
281
200
-61
-308
-376
-294
-434
-733
-909
-519
-339
-411
-738
-710
-677
-1112
-1314
-1235
-878
-1072
-1333
-838
-452
-594
-1232
-1803
-1829
-1420
-821
-975
-1645
-1635
-1312
-843
-1003
-1159
-727
-477
-533
-1094
-1104
-918
-719
-792
-807
-381
-138
-85
-527
-676
-609
-412
-619
-902
-752
-421
-235
-353
-366
-284
-182
-229
-327
-599
-330
-161
21
15
-23
19
-3
-149
-343
-440
-361
-188
-109
-255
-372
-273
-145
-76
-127
-152
-93
56
242
356
308
-12
-60
-21
-22
-119
-242
-268
-157
-10
91
161
325
301
72
185
-134
-104
-59
-85
-205
-196
-108
65
254
340
276
184
339
452
305
-78
-441
-568
-489
-589
-706
-613
-518
-440
-155
-64
-94
-120
-9
175
210
-160
-154
-10
-450
-362
-456
-132
-155
345
242
-209
-247
-145
-80
-347
-626
-314
37
89
-426
-386
91
-47
-24
-128
-218
10
139
204
524
684
687
823
1066
1105
740
1009
1531
1556
1277
1511
3080
3481
3537
4258
4539
4411
3930
3313
2370
1917
1251
475
-80
-288
-379
-342
-180
226
58
-60
62
50
-260
-252
-165
-259
-389
-425
-178
-33
45
75
154
253
124
-71
-171
-17
27
-38
-211
-161
9
305
242
139
233
287
232
288
522
466
292
183
225
394
668
597
528
713
757
636
447
499
476
267
459
829
1031
827
403
204
688
687
526
598
505
657
528
347
293
202
95
341
481
499
319
341
423
424
342
246
205
235
293
305
245
181
90
-81
-301
-323
-169
-133
-344
-325
-260
-272
-333
-313
-227
-236
-422
-659
-717
-482
-640
-963
-1143
-718
-596
-846
-712
-613
-744
-901
-836
-766
-466
-375
-509
-783
-906
-702
-345
-287
-507
-515
-206
189
317
78
-453
-311
-61
43
-17
-76
-48
-20
-89
-174
-152
-78
-153
-480
-841
-767
-603
-667
-871
-939
-774
-566
-499
-671
-719
-734
-736
-681
-658
-584
-142
34
53
-6
-18
22
-56
-337
-667
-811
-706
-543
-517
-610
-631
-424
-474
-622
-637
-417
-142
-72
-374
-217
135
139
-224
-421
-145
-115
-239
-329
-277
-142
61
94
-42
60
243
344
307
260
307
314
111
-56
-102
-127
-271
-454
-436
-142
190
281
173
141
331
579
363
59
-69
175
334
437
477
475
483
543
559
401
189
-129
-157
-38
276
497
-48
-277
-362
-356
-300
-211
-144
-203
-359
-484
-489
-437
-437
-516
-601
-595
-528
-391
-74
-81
-166
-183
-147
-313
-469
-431
-259
-204
-320
-354
-131
138
-351
-622
-387
285
-38
-372
-199
383
755
423
858
2180
2714
3117
3480
3843
4174
4398
4123
3633
3090
2124
1530
781
-560
-928
-1189
-1672
-1568
-1259
-1153
-1073
-1088
-1149
-1180
-1235
-1246
-1161
-926
-939
-906
-402
-348
-592
-1098
-691
-933
-589
-25
-377
-771
-461
-168
-151
-360
-254
-115
-134
-159
-137
-306
-514
-654
-281
-120
-166
-267
-197
360
355
51
-193
83
301
284
403
604
443
241
168
335
687
782
670
380
381
361
98
50
168
615
694
606
479
478
617
752
494
296
282
426
587
657
608
381
350
465
694
451
40
-149
106
252
158
-9
-27
94
-206
-466
-556
-617
-736
-852
-888
-830
-736
-690
-771
-851
-858
-802
-758
-775
-840
-886
-901
-901
-905
-937
-1016
-767
-548
-972
-1274
-1180
-448
-538
-899
-931
-520
-238
-505
-691
-690
-379
-355
-866
-515
-656
-323
-346
-255
-236
-270
-475
-524
-455
-268
-433
-726
-868
-654
-204
111
-332
-572
-478
-236
-520
-848
-750
-573
-537
-349
-144
-123
-571
-634
-581
-629
-511
-205
-422
-654
-722
-637
-533
-487
-417
-315
-261
-330
-407
-498
-501
-458
-382
-304
-249
-196
-24
63
85
-223
-331
-410
-409
-435
-447
-341
-227
-225
-376
-568
-640
-416
-393
99
-91
205
99
-303
-837
-663
-501
-592
-823
-882
-650
-285
-454
-589
-515
-336
-264
-344
-361
-274
-289
-390
-291
-143
-143
-268
-354
-304
-139
-140
-149
-172
-254
-369
-379
58
170
94
401
122
-266
-464
-498
-405
-361
-451
-526
-93
120
39
-234
-434
-451
-401
-599
-714
-708
-622
-522
-405
-266
-160
-179
-137
-164
-458
-737
-326
-60
-185
-565
-94
526
472
79
11
290
604
756
2760
4150
3961
3698
3430
2779
2212
1474
230
-37
-248
-1037
-1301
-1220
-717
-749
-865
-627
-476
-522
-690
-499
-243
-284
-483
-553
-325
-381
-643
-1012
-797
-449
-228
-328
-335
53
-153
309
375
-331
-515
-406
-281
-422
-473
-171
30
265
662
534
248
263
550
613
49
66
409
700
376
126
435
503
307
155
382
543
543
630
724
556
494
712
436
755
642
301
390
808
972
717
931
1319
1367
1113
1004
949
698
415
283
368
475
789
914
909
822
858
567
411
402
499
435
379
443
417
269
15
-304
-296
-326
-524
-694
-634
-378
-222
-379
-395
-1
-100
-504
-903
-974
-679
-303
-395
-584
-440
288
189
-157
-275
-187
-379
-759
-524
-740
-848
-726
-534
-634
-611
-252
-366
-617
-417
39
-141
-325
-221
-125
-156
-569
-739
-714
-252
-156
-224
-231
-107
-99
-291
-138
120
34
-237
-339
-138
-180
-366
-613
116
-6
50
39
99
181
166
-107
-104
94
159
84
310
436
408
167
187
285
359
317
129
-168
-432
-220
-675
33
-249
-48
-188
-491
-477
-327
-467
-828
-531
-209
-197
-418
-484
-256
-96
-428
-623
-101
26
-170
-355
-17
349
447
331
353
940
1244
1393
1588
1986
2524
2962
2839
2872
1973
893
-399
-670
-963
-1115
-1102
-748
-745
-811
-503
-382
-597
-1242
-1126
-277
-271
-1036
-473
-166
-441
-541
-436
-168
-130
-105
-179
-252
-180
166
456
549
566
576
632
612
64
-243
-339
171
489
623
622
885
1284
1313
913
696
1059
1080
867
751
995
1174
931
763
699
746
733
697
743
904
1138
1261
805
826
982
883
754
792
996
827
549
396
484
433
33
83
303
242
-45
-150
184
130
-129
-305
-232
-320
-658
-583
-455
-1062
-1093
-676
-686
-894
-1127
-1003
-1058
-1124
-1038
-1187
-1298
-1107
-1014
-1026
-1193
-1220
-1141
-887
-982
-1166
-1037
-822
-844
-1198
-973
-558
-541
-829
-899
-701
-951
-1291
-1173
-927
-883
-850
-582
-389
-549
-521
-419
-539
-551
-29
-361
-577
-197
-35
-624
-680
-457
-235
-181
-199
-196
-235
-342
-398
-278
-112
-355
-569
-445
-489
-704
-653
-447
-429
-537
-292
-48
-631
-798
-865
-821
-756
-794
-715
-494
-196
-573
-518
-325
-154
-68
-77
-167
-376
-341
-272
-420
-471
-313
-42
93
7
-109
188
295
121
-198
-380
-287
-77
31
-32
-176
-264
-143
-21
63
-56
-261
-437
-465
-322
-146
-123
-184
-736
-466
-652
-941
-989
-712
-371
-272
-429
-608
-570
58
226
166
-3
-87
16
222
351
334
263
271
526
671
908
1327
1878
2389
2774
3425
3776
4010
4051
3952
3703
2592
1995
1524
453
-232
-1645
-884
-756
-468
-237
-371
-487
-530
-667
-715
-654
-557
-670
-801
-794
-697
-556
-393
-552
-803
-867
-763
-871
-1411
-1284
-921
-971
-1359
-1498
-936
-907
-1223
-1613
-1312
-926
-1616
-1550
-795
-694
-928
-869
-754
-639
-616
-595
-595
-526
-379
-146
-211
-354
-495
-443
-342
-250
-283
-261
112
259
284
322
201
-199
-174
-12
222
370
578
-61
205
357
259
17
144
312
513
506
333
-179
-119
107
-16
-317
-431
-98
-41
-128
-328
-379
-450
-574
-556
-483
-361
-398
-477
-400
-341
-459
-997
-847
-339
-789
-562
-734
-1332
-1326
-1164
-1019
-940
-766
-552
-608
-602
-281
-254
-381
-261
104
396
286
229
290
144
-78
-153
110
174
226
557
586
419
204
253
244
61
383
120
-159
7
296
269
5
-43
454
435
171
-141
-43
82
202
145
-46
-429
-405
-294
-277
-313
-305
-173
-36
149
217
23
-168
-236
-241
-246
-69
65
159
427
255
185
318
345
419
865
918
861
1048
1139
952
159
56
132
-10
-172
-141
404
570
563
369
347
379
393
284
155
111
169
210
93
-109
-323
-327
-137
-521
15
-389
-197
214
371
-6
-256
481
338
-121
136
555
676
567
717
1282
1200
1007
1224
1434
1472
1827
2472
3227
4273
4541
4716
4935
4993
4887
3884
3308
2933
-101
-541
-621
-292
129
-65
-253
77
228
100
-198
262
590
650
587
67
-9
159
389
322
356
632
519
315
318
293
70
-261
-91
171
571
720
755
460
416
-347
90
608
610
579
737
938
848
560
307
298
531
768
694
485
502
1450
1285
853
936
1087
1138
1062
965
826
849
930
1071
1066
1018
1038
1272
1566
1437
869
1333
1851
1654
1210
1053
1234
961
520
387
653
866
1127
1221
1159
664
478
353
21
-70
-46
132
221
337
377
105
-258
-390
-185
-114
-438
-375
-70
249
41
-461
-475
-404
-75
163
-32
-231
-308
-186
-185
-316
-652
-668
-576
-241
-91
-75
412
97
-50
-255
-429
-180
-25
-109
-246
136
627
714
410
241
-145
136
540
507
284
400
543
295
106
108
405
438
379
147
133
345
950
799
398
356
748
882
193
74
248
356
188
115
188
171
187
12
-23
667
811
919
543
721
522
395
701
838
825
703
728
718
312
-12
-288
-582
-625
-594
-406
-343
-298
-175
-220
-390
-644
-574
-491
-595
-574
-345
219
141
-206
-692
-498
-108
-579
99
-43
422
871
804
586
1291
2079
2441
2756
3512
4336
4082
4046
4583
4079
3054
1730
1425
716
-1427
-1842
-1732
-1094
-1301
-989
-665
-672
-759
-675
-373
-435
-613
-877
-890
-868
-961
-1011
-833
-720
-749
-1055
-985
-696
-244
-346
-496
-277
-102
-146
-667
-791
-742
-458
-370
-357
-358
-243
54
491
503
633
835
655
358
196
371
439
71
28
249
823
709
250
284
555
801
403
-37
167
500
475
-309
-342
-4
543
421
253
394
495
433
37
-127
40
242
178
59
128
417
220
-127
-391
-405
-555
-778
-552
-307
-495
-612
-516
-512
-893
-1197
-903
-769
-825
-574
-288
-305
-991
-1006
-812
-908
-1106
-1135
-804
-571
-1025
-1058
-1235
-1015
-795
-487
-269
-142
-421
-575
-674
-983
-938
-655
-456
-679
-679
206
303
-72
-326
98
51
-309
-481
88
313
219
38
361
701
550
318
232
-594
-120
-228
-176
330
159
-324
-539
-184
-101
-813
-782
-403
-343
-708
-797
-307
-411
-695
-504
-145
8
-169
-222
-250
-250
-162
-205
-834
-942
-716
-414
-640
-828
-614
-477
-160
244
-153
-68
135
-39
-278
-307
-22
-13
-15
164
205
166
55
-78
-197
123
362
295
-110
216
745
713
203
165
-391
-250
-1
-42
-182
-272
-11
137
353
409
441
443
293
33
-137
112
327
227
240
485
894
742
505
409
538
655
648
606
670
1169
1417
1602
2169
2704
3308
4135
4300
4436
4695
1602
-1074
-1427
-1358
-902
-664
-545
-933
-1131
-1055
-747
-1010
-1359
-1238
-968
-829
-636
-521
-519
-518
-271
-77
-400
-603
-612
-565
-597
-552
-448
-467
-363
120
19
-330
-526
-301
-291
138
110
-57
-71
-84
-52
70
212
302
300
313
420
488
515
364
351
500
872
814
637
378
342
330
446
572
682
756
808
947
1084
769
409
347
352
170
-136
-61
68
-385
-364
-154
-343
-593
-632
-674
-851
-850
-685
-746
-1495
-1587
-1390
-1377
-1732
-1963
-1577
-1395
-1477
-1871
-1919
-1977
-2283
-2302
-2190
-2086
-2270
-1983
-2136
-2633
-2515
-2270
-2259
-2389
-2434
-2239
-2127
-2110
-2427
-2521
-2385
-1926
-1891
-1922
-1915
-1953
-1986
-1851
-1858
-1958
-1779
-1504
-1373
-1534
-1428
-1243
-1526
-1895
-2031
-1470
-1258
-1085
-1438
-1419
-1641
-1806
-1566
-1482
-1615
-1857
-1709
-1547
-1658
-1719
-1617
-1373
-1402
-1393
-1144
-1205
-1435
-1546
-1376
-1332
-1572
-1526
-1430
-1580
-1553
-1303
-1177
-1528
-1757
-1306
-1170
-1330
-1116
-901
-1042
-1145
-1189
-1167
-1093
-1021
-1063
-1132
-1009
-141
30
-238
-657
-257
138
-393
-759
-643
19
-94
-302
-54
139
140
-83
-141
-149
143
322
281
-151
-58
205
133
-181
-34
399
-148
-155
226
730
513
287
284
207
36
12
113
94
43
251
478
448
381
447
558
478
513
976
1022
911
1293
1848
2324
2867
3237
3660
3980
3968
4013
1220
-107
-771
-753
-850
-924
-759
-118
-145
-373
-81
24
-248
-258
-115
60
21
-7
6
29
90
240
237
163
3
-48
-40
278
465
542
525
633
794
1004
1119
964
1214
828
978
1704
2096
2289
2166
2124
2071
2034
2169
2335
2420
2387
2377
2496
2649
2803
2842
2745
2624
2419
2416
2467
2232
1954
1850
2155
2177
2096
1679
1362
1052
1204
1380
1404
1501
1521
1371
1313
1428
1183
731
451
649
727
518
561
613
174
-479
-601
-1087
-941
-1036
-1341
-1501
-1027
-814
-774
-1490
-1337
-1543
-1715
-1668
-1445
-1241
-1227
-1425
-1698
-1848
-1810
-1643
-1716
-1781
-1735
-1619
-1562
-1618
-1718
-1814
-1924
-2029
-2091
-2073
-2024
-2023
-1943
-1765
-1660
-1850
-1819
-1633
-1496
-1536
-1404
-1130
-991
-1168
-1524
-1801
-1269
-1173
-1478
-1836
-1898
-1957
-1902
-1790
-1752
-1714
-1506
-1256
-1455
-1894
-2210
-2046
-1928
-1981
-1788
-1518
-1411
-1489
-1616
-1675
-1741
-1801
-1787
-1527
-1440
-1409
-1296
-1261
-1348
-1696
-1737
-1641
-1643
-1314
-1012
-1005
-1422
-1366
-1160
-976
-920
-989
-1164
-1392
-1528
-1498
-1396
-1547
-1632
-1667
-1769
-1345
-1539
-1360
-1486
-1524
-1542
-1600
-1683
-1696
-1575
-1373
-1201
-1093
-998
-884
-746
-710
-606
-315
-298
-252
65
703
1433
1936
2105
2191
2421
2627
2314
1724
232
-422
-945
-1985
-2508
-2819
-2230
-2448
-2633
-2328
-2437
-2686
-2553
-1622
-1629
-1935
-2070
-1927
-1979
-2293
-2134
-1907
-2014
-2152
-2093
-1965
-2207
-2479
-2293
-2033
-1983
-2284
-2199
-1895
-1460
-1587
-1832
-1881
-1593
-1357
-1725
-1992
-1750
-1011
-1867
-1828
-1386
-1194
-1666
-1955
-1289
-1016
-1132
-1489
-1296
-1020
-996
-1200
-1399
-1487
-1289
-1050
-993
-1021
-874
-485
-541
-658
-587
-581
-726
-838
-688
-719
-805
-816
-1100
-1490
-1229
-1074
-1659
-1832
-1585
-1110
-1383
-1668
-1417
-1341
-1503
-1528
-1349
-1419
-2035
-2044
-1908
-2208
-2488
-2554
-2384
-2423
-2467
-2277
-2185
-2159
-1996
-1882
-1900
-2273
-2359
-2320
-2338
-2462
-2008
-1608
-1853
-1771
-1647
-1898
-1984
-1839
-1607
-1783
-1936
-1542
-1302
-1300
-1714
-1754
-1607
-1287
-1337
-1433
-1442
-1374
-1371
-1606
-1696
-1296
-640
-774
-1053
-1151
-914
-739
-545
-1032
-1007
-793
-1103
-1338
-1300
-1055
-1251
-1437
-900
-508
-427
-659
-527
-345
-732
-1147
-1360
-1206
-1220
-1323
-1094
-769
-605
-950
-1018
-860
-469
-440
-401
162
96
-270
-736
-974
-1443
85
-620
-546
-164
132
26
-431
-870
-940
-588
-145
-8
-269
-619
-722
-571
-524
-772
-930
-714
-550
-394
-185
61
221
213
93
42
132
250
184
-138
-544
-752
-393
-233
-315
-551
-726
-648
-319
114
217
-387
-708
-1003
-852
-686
-643
-674
-639
-535
-317
-81
218
275
-87
-611
-806
-545
-249
-402
-919
-1078
-630
-369
-398
-459
-338
-136
-102
-129
-111
-333
-467
-431
-347
-488
-489
-211
113
176
698
1890
2582
2986
3731
4668
4262
3759
3751
3610
2942
1204
620
54
-977
-1087
-1050
-1514
-1731
-1529
-530
-479
-756
-1020
-652
-882
-964
-843
-534
-599
-708
-633
-623
-770
-718
-643
-259
-123
-187
-149
-26
-120
-338
-404
-96
-180
-445
-252
204
362
-321
-345
45
375
1
-311
-151
-37
-38
-7
34
66
354
489
445
225
320
412
183
119
-48
-134
-69
-69
-73
239
438
450
28
-132
-159
-26
-39
-197
-357
-3
425
526
254
41
284
810
1008
589
-24
80
305
34
-743
-506
-161
-533
-567
-505
-530
-561
-326
-866
-637
-992
-1784
-1597
-1175
-1105
-1579
-1978
-1735
-1394
-1249
-1327
-1452
-1427
-1237
-1030
-956
-1073
-1309
-1736
-1797
-1745
-1632
-1557
-1552
-1543
-1419
-1035
-1026
-1131
-916
-667
-672
-976
-1325
-1407
-1039
-1125
-1299
-1196
-1074
-955
-880
-872
-872
-796
-642
-567
-756
-957
-1011
-914
-785
-770
-920
-866
-720
-586
-496
-441
-422
-536
-591
-537
-446
-658
-922
-797
-525
-451
-647
-892
-912
-711
-532
-697
-767
-167
-72
-485
-285
-289
-457
-476
-201
-278
-490
-630
-587
-482
-475
-517
-253
92
147
-24
-51
66
-148
-432
-171
-136
-503
-474
-220
-7
-223
-335
230
435
313
27
-165
-238
-581
-639
167
52
-110
123
241
115
-355
-277
-44
-32
-262
-380
-152
-86
-145
-221
-215
-202
-331
-629
-924
-980
-800
-700
-983
-1189
-1103
-797
-541
-490
-545
-536
-420
-337
-778
-1297
-777
-526
-726
-837
-684
-333
-36
25
-128
-217
83
527
1222
1403
1697
2963
3600
3945
4140
4305
4361
3458
2762
2162
864
2
-789
-1612
-1795
-1956
-2146
-2160
-2088
-1527
-1216
-796
-1394
-1306
-1463
-1590
-1215
-1031
-1060
-1149
-993
-840
-756
-743
-767
-816
-647
-426
-692
-1043
-1144
-855
-990
-1218
-506
-485
-772
-513
-169
-352
-581
-466
287
330
103
-150
-634
-94
-125
-207
-10
143
-68
-226
-314
-569
-695
-679
-211
62
259
375
360
393
616
686
622
202
161
371
716
513
338
791
984
869
667
758
683
291
448
254
-6
282
113
-233
-132
40
-68
-247
-53
11
-186
-397
-387
-270
-546
-682
-580
-527
-821
-1038
-815
-742
-824
-1031
-1094
-1171
-1245
-1286
-470
-1085
-750
-674
-725
-615
-551
-713
-805
-533
-393
-365
-573
-713
-783
-637
-636
-733
-662
-459
-316
-263
-222
-176
-236
-308
-386
-649
-723
-482
-760
-679
-341
-136
-95
-50
-80
-188
-62
-345
-606
-729
-754
-678
-495
-444
-656
-629
338
420
-35
-616
-353
-252
-999
-1054
-695
-337
-552
-573
154
184
83
-406
53
-159
-400
-417
-373
-360
-294
-268
-262
-191
309
497
98
-203
-232
162
4
-400
-499
-96
160
-223
-397
-313
314
498
406
-17
214
684
651
150
-85
-111
-419
-352
-267
-318
-163
98
271
269
193
163
194
160
108
31
11
48
340
476
481
167
100
226
466
609
526
351
317
476
683
804
1110
1441
1742
2284
2853
3568
4441
4587
3881
950
-257
-645
-1132
-1883
-1746
-1471
-1395
-1349
-1048
-520
-633
-778
-525
-1195
-1146
-1151
-846
-625
-466
-458
-504
-541
-690
-737
-630
-211
-270
-519
-419
-303
-308
-243
-385
-703
-929
-628
-408
-316
-155
17
128
-54
-214
-330
-353
-303
-251
-63
154
359
178
-87
-205
-78
-148
-277
-39
260
392
287
348
476
377
230
329
361
261
15
-156
-78
225
511
554
196
255
513
657
369
88
177
379
440
156
105
211
298
82
-103
165
-35
-258
-72
-40
-646
-716
-565
-530
-747
-971
-923
-781
-713
-318
-473
-930
-891
-865
-1011
-1245
-1406
-1461
-1443
-1332
-1095
-802
-622
-631
-731
-802
-872
-844
-754
-872
-1108
-1107
-298
-189
-449
-711
-581
-612
-862
-712
-554
-600
-713
-598
-275
-432
-875
-653
-345
-666
-637
-440
-282
-458
-606
-265
7
22
-231
-481
-449
-175
-146
-525
-729
-230
-115
-331
-312
-180
-720
-802
-524
-227
-285
-639
-872
-373
-204
-282
-360
-243
-77
-145
-730
-1019
-547
-551
-640
-686
-608
-454
-251
-267
-362
-562
-788
-864
-707
-495
-805
-1098
-994
-550
-249
-420
-948
-565
-96
-440
-800
-716
-322
-102
-286
-638
-562
-319
-315
-520
-678
-642
-542
-728
-824
-273
30
-302
-397
-428
-636
-694
-587
-232
-360
-646
-857
-831
-678
-613
-803
-787
-670
-435
-331
-274
-387
-687
-962
-995
-789
-601
-643
-826
-920
-829
-689
-678
-786
-841
-754
-616
-642
-666
-515
149
-213
-258
58
441
826
1260
1760
2812
3392
3931
4233
4011
507
-1699
-1964
-1916
-1854
-1716
-1431
-1064
-1022
-1290
-1378
-945
-855
-1010
-1558
-1683
-1442
-890
-867
-855
-941
-1410
-1468
-1281
-812
-804
-875
-814
-690
-574
-604
-785
-952
-742
-461
-339
-745
-810
-974
-976
-874
-791
-765
-536
184
158
-91
-137
-20
-151
-707
-3
-303
-136
606
306
-301
-368
-5
44
-260
-53
223
214
252
410
190
-152
-334
-265
-253
-166
259
303
208
270
374
321
22
47
108
54
-118
-258
-246
-117
-35
-107
-514
-1052
-1035
-752
-1035
-1382
-1406
-1081
-781
-1207
-1428
-1323
-1036
-826
-796
-903
-1334
-1464
-1364
-1117
-1011
-1158
-1340
-971
-748
-793
-947
-1011
-1028
-1197
-1488
-1623
-1465
-1269
-1534
-1534
-1163
-704
-1318
-848
-716
-1212
-1210
-919
-674
-735
-982
-1109
-715
-611
-695
-659
-417
-292
-390
-548
-582
-527
-990
-1007
-834
-673
-672
-771
-690
-553
-515
-562
-596
-523
-389
-357
-375
-305
-232
-346
-700
-548
-129
194
-53
-310
-314
-205
-216
-509
-516
-357
-174
-111
-228
-449
-659
-792
-809
-751
-664
-693
-693
-630
-563
-579
-635
-364
-61
100
-208
-296
-135
143
258
57
-319
-563
-509
-308
-227
-364
104
-153
-927
-1185
-661
-21
-89
-1525
-1370
-694
-666
-1153
-1129
-257
-796
-1019
-567
-218
-242
-605
-1017
-1151
-911
-525
-372
-597
-931
-1010
-773
-523
-522
-700
-788
-660
-330
-329
-343
-323
-292
-263
437
2105
2753
2946
3105
3431
3399
2969
1300
-1754
-1092
-1240
-1621
-1121
-765
-1172
-1323
-1292
-1344
-1131
-926
-872
-1249
-1344
-1281
-1044
-968
-922
-1055
-1196
-1222
-864
-762
-841
-977
-838
-667
-613
-643
-611
-539
-560
-602
-486
-268
-94
-512
-802
-708
49
-136
159
-214
-61
-76
-155
-430
-421
-227
116
46
-62
35
133
99
-337
-523
-556
-363
-299
-246
-89
-158
-370
-547
-383
-325
-1070
-1353
-1177
-479
-640
-955
-639
-297
-318
-1182
-1158
-1702
-1790
-1164
-1127
-1345
-1500
-1434
-1285
-1232
-1275
-1327
-1377
-1481
-1583
-1536
-1350
-1281
-1499
-1839
-1951
-1709
-1261
-1415
-1526
-1388
-1145
-1069
-1177
-1073
-876
-938
-1487
-1378
-1066
-914
-1070
-1287
-1314
-1266
-1412
-1023
-286
-1065
-1254
-1117
-966
-985
-1038
-975
-1064
-1272
-1183
-675
-112
14
-313
-507
-111
119
-379
-564
-525
-438
-452
-537
-570
-503
-529
-592
-646
-654
-624
-570
-693
-844
-846
-595
-218
-21
-186
-600
-785
-411
-267
-493
-655
-632
-473
-396
-493
-606
-394
-334
-460
-504
-360
-371
-195
-587
-451
-4
-138
-418
-531
-185
227
389
112
-408
-707
-499
-14
223
-29
-444
-522
-133
-40
-929
-578
-199
-144
-383
-559
-445
-207
-178
-468
-795
-816
-250
-212
-358
-407
-226
54
157
-44
-760
-825
-645
-409
-299
-302
-246
-7
328
560
597
526
467
488
589
788
1151
1655
2708
3214
3734
3904
1457
270
-142
-1208
-1452
-1395
-1357
-1481
-1426
-828
-765
-936
-1025
-776
-593
-1034
-1014
-764
-778
-883
-1015
-912
-735
-486
-423
-352
-276
-403
-566
-544
-363
-291
-633
-754
-720
-501
-188
181
363
135
171
331
244
12
-112
-107
-55
106
390
173
-130
82
349
242
-493
-372
41
371
277
322
546
413
239
225
155
-60
-233
58
432
486
565
191
122
464
670
695
283
175
246
352
183
13
73
134
94
155
436
665
398
217
275
495
253
-114
-365
-301
-303
-450
-490
-524
-554
-525
-539
-792
-912
-943
-581
-1065
-1291
-1148
-658
-840
-1046
-628
-421
-517
-706
-706
-532
-466
-965
-1166
-1203
-1118
-937
-716
-798
-945
-801
-36
-47
-325
-546
-467
-485
-615
-570
-591
-947
-919
-665
-442
-203
-733
-791
-294
-251
-427
-544
-429
-242
-252
-497
-731
-750
-614
-802
-1032
-1026
-512
-389
-343
-98
-112
-342
-625
-656
-1048
-968
-695
-622
-750
-649
-190
-303
-537
-594
-523
-484
115
12
-362
-491
147
187
-166
-596
-336
-114
-291
-332
-249
-181
-196
-202
-142
-253
-400
-373
-23
-85
-291
-310
-241
-207
-282
-472
-554
-159
252
324
25
-230
-40
-170
-527
-471
41
169
-48
-66
73
-115
-387
-617
-576
-507
-455
-464
-513
-494
-335
-159
-180
-434
-589
-239
48
-374
-594
-425
276
159
-187
-238
94
333
273
277
395
627
755
2185
3686
4358
4758
4691
3432
2971
2639
1002
-59
-698
-1060
-1435
-1799
-1391
-1027
-1035
-1358
-1070
-691
-751
-921
-855
-463
-508
-674
-831
-783
-704
-734
-888
-990
-590
-346
-289
-456
-295
-412
-274
4
-112
-342
-471
-359
-287
-136
-5
-14
-419
-391
-156
-70
-252
-277
57
86
47
119
59
-96
-90
100
248
286
232
166
-410
517
97
-121
700
1049
915
213
238
441
561
436
295
211
351
538
537
502
678
975
693
436
942
994
456
-428
-8
481
214
-40
-60
-160
-325
-362
-543
-301
-217
-814
-1086
-1117
-1012
-1049
-1072
-1019
-911
-688
-389
-560
-750
-528
-509
-808
-1234
-955
-677
-1108
-1385
-1285
-612
-696
-1114
-1518
-1096
-593
-692
-1026
-1024
-330
-325
-626
-563
-410
-896
-715
-470
-363
-522
-475
-301
-149
-230
-298
-355
-416
-438
-351
-412
-528
-383
-254
-315
-549
-355
-130
-411
-605
-496
-93
-287
-562
-364
-122
-58
-50
125
-332
-564
-586
-128
-2
119
-202
-172
-209
-115
456
549
420
-266
-359
-243
-58
-220
-461
-492
-187
-237
-350
-303
-109
0
-103
-348
-291
-284
-503
-507
-435
-299
-152
26
-3
-108
-52
109
-135
-475
-542
-433
-485
-862
-857
-677
-185
-78
537
1377
2210
2557
3168
4601
4730
4525
4291
4075
3471
1917
1373
759
-879
-1284
-1231
-1178
-1505
-1712
-1264
-1076
-1166
-1457
-1337
-1254
-1660
-1356
-1001
-1224
-1290
-593
-514
-743
-696
-508
-946
-924
-705
-636
-549
-614
-726
-699
-473
-683
-988
-722
-303
-109
-422
-503
-402
-21
10
-160
-633
-560
-269
29
-165
-396
-433
-180
-172
-179
-122
149
261
307
-62
-33
-90
-85
186
259
247
380
524
532
69
-11
164
536
367
49
-33
256
447
67
-91
64
614
541
334
352
441
335
19
202
461
215
-64
-76
-593
-770
-811
-657
-828
-840
-628
-482
-728
-896
-850
-747
-791
-1061
-1045
-777
-902
-915
-921
-812
-661
-627
-1051
-1050
-759
-523
-871
-1200
-1043
-836
-760
-807
-791
-665
-499
-400
-429
-441
-439
-498
-433
-233
-23
-249
-509
-482
-417
-535
-847
-761
-570
-359
-363
-356
-164
-82
-169
-690
-711
-511
-477
-735
-835
-414
-305
-315
-582
-283
-966
-859
88
87
-274
-335
85
190
-656
-609
-89
50
-510
-717
195
214
-298
-864
-578
-358
-529
-488
-282
-116
-259
-367
-351
-267
-210
-201
-162
-86
21
190
227
-356
-355
-373
-627
-829
-420
-87
-99
-884
-879
-444
17
-428
-919
-762
-411
-270
-346
-253
-125
-159
-239
-301
-621
-855
-947
-567
-366
-296
-308
-300
-204
-1
586
855
1060
3111
3613
3155
2659
1880
1394
696
-1702
-1360
-1287
-1200
-1152
-1073
-842
-832
-969
-1215
-1059
-832
-806
-918
-903
-669
-633
-643
-769
-834
-704
-616
-830
-882
-735
-510
-558
-558
-521
-572
-529
-142
-163
-349
-265
-1
71
-231
-141
101
111
-92
-141
207
172
-112
-478
-311
-143
-288
-327
-204
-78
-166
-151
157
506
480
161
65
357
486
-23
-114
65
419
499
656
808
479
88
128
269
82
-633
-448
-7
206
14
-55
10
-174
-420
-588
-614
-676
-801
-845
-872
-782
-736
-909
-1454
-1563
-1531
-1464
-1431
-1402
-1234
-861
-1030
-1337
-1456
-1321
-1334
-1717
-1707
-1517
-1364
-1514
-1611
-1306
-1386
-1222
-811
-509
-917
-1183
-1180
-1095
-1357
-1573
-1207
-956
-910
-784
-1278
-900
-841
-962
-872
-699
-863
-1149
-1251
-819
-733
-785
-534
-344
-390
-700
-589
-455
-852
-1018
-841
-423
-814
-1008
-701
-473
-888
-1153
-1123
-706
-701
-766
-724
-791
-44
-556
-342
-336
-536
-1029
-913
-621
-491
-583
-490
-155
-250
-279
454
554
100
-717
-414
-101
-739
-1136
-1137
-627
-527
-547
-853
-1078
-639
-482
-845
-1115
-805
-534
-241
-430
-438
-141
135
186
104
105
217
286
493
1395
1778
2062
3011
3576
3817
3508
3521
3587
2613
1733
1109
429
-170
-888
-1644
-1635
-1480
-1265
-773
-1126
-780
-655
-627
-618
-629
-660
-521
-414
-409
-535
-456
-339
-517
-688
-719
-519
-452
-373
-233
-357
-526
-360
-196
-245
-500
-346
-105
113
172
213
-212
-153
300
361
562
724
430
291
332
514
443
287
138
192
235
196
269
441
640
627
651
934
1035
998
631
506
583
807
582
274
588
968
980
386
523
852
614
271
736
874
-208
136
92
-70
-31
135
143
-244
-225
-33
-25
-207
-230
-46
-252
-595
-794
-733
-811
-957
-702
-392
-306
-289
-65
154
-218
-630
-634
-563
-758
-985
-415
-527
-659
-283
-230
-356
331
-257
-48
-76
-362
-559
-291
-74
277
62
-149
-464
-595
-123
14
-7
20
55
49
181
133
-171
-560
-203
187
8
-97
81
247
48
3
395
280
-63
-285
-22
189
-136
-387
-348
414
466
155
-209
262
198
145
420
448
292
-127
-145
-39
47
-113
-261
-183
-161
-301
-508
-397
-339
-732
-760
-462
-52
-322
-557
31
264
46
-497
-239
47
-349
-544
-372
49
-160
-45
510
1484
2210
2964
3660
3761
4055
4767
4577
4027
3114
2851
2454
1092
460
-50
-925
-1222
-1293
-1175
-1291
-1416
-964
-610
-537
-1001
-1082
-1046
-1075
-1036
-927
-1007
-1126
-1055
-316
-505
-499
-639
-676
-648
-433
-376
-458
-670
-532
-324
-433
-603
-584
-263
-309
-404
-189
-61
-83
-170
-53
74
-3
-133
-182
139
278
233
-18
82
270
358
296
255
-413
293
312
515
890
772
401
197
269
482
331
223
425
417
250
325
669
853
329
184
410
804
409
-129
-178
202
340
-246
-402
-279
-212
-155
-401
-555
-575
-504
-533
-792
-739
-563
-652
-961
-1106
-642
-575
-832
-1234
-1027
-784
-845
-982
-1020
-958
-994
-1055
-959
-814
-706
-644
-534
-368
-360
-473
-494
-430
-514
-724
-81
-776
-581
-85
-58
-491
-629
22
57
-253
-696
-559
-364
-229
-263
-324
-211
-15
77
-316
-438
-356
-267
-353
-298
67
73
21
124
-1
-334
-496
-194
23
138
-356
-432
-258
-81
-99
-41
82
6
-26
219
185
-39
104
352
258
115
111
440
524
519
535
482
218
-609
-673
-415
-122
-379
-549
222
678
714
78
20
-83
-61
150
127
63
227
359
367
-52
-196
-146
18
-201
-487
-265
112
252
-209
-267
-86
243
211
128
102
149
159
48
66
177
269
151
107
546
765
900
3796
5055
4634
4723
4256
3275
2252
1113
556
-205
-1261
-1307
-1262
-1304
-1309
-1275
-1047
-838
-696
-1255
-1134
-293
-197
-414
-660
-435
-217
-381
-576
-696
-633
-464
-350
-601
-707
-687
-147
-535
-650
-477
278
310
33
-424
-387
-317
-258
-262
-347
-395
-124
190
215
29
-91
-58
329
404
129
-86
72
165
129
-134
-325
-433
31
318
343
499
988
434
562
1096
730
220
545
1002
1030
388
544
1038
1454
1069
634
770
1088
1070
61
-137
127
696
493
155
144
396
497
58
-86
7
251
127
3
161
193
-305
-704
-719
-777
-828
-948
-970
-919
-732
-729
-788
-863
-906
-1038
-1287
-1124
-881
-1143
-1424
-1319
-367
-451
-946
-1142
-691
-429
-829
-934
-861
-750
-695
-541
-269
-257
-244
-255
-541
26
90
39
170
374
401
93
-227
11
506
822
490
431
671
817
358
-91
-41
129
129
186
430
593
382
294
87
324
-172
220
330
807
412
3
-50
91
56
-165
62
455
687
428
219
153
33
-118
17
143
86
-102
54
213
-3
-40
64
-117
-348
-303
-184
-842
-1581
-1050
-465
-696
-2522
-2780
-2985
-179
726
-4413
-11507
-21167
-22949
-20838
-4259
3303
4288
-3366
-2917
-310
-4302
-12202
-17093
-6595
2243
6052
1327
-456
-461
1524
1287
441
-2639
-3380
-2529
2128
3555
2921
-1536
-2116
1535
-2397
296
-6410
-971
8252
3593
-3395
-3584
8852
9032
2147
-13142
-10198
-2060
10177
5281
-4268
-11913
-5293
2051
-281
-8701
-13876
-5623
461
2613
-8006
-14682
-16810
2105
18451
30293
2795
25917
6914
-4188
3941
16045
7489
-4141
4695
17325
23069
14036
9362
5379
-2898
760
11201
20847
13000
5532
7067
7502
4641
7855
15297
19614
10046
2104
-2358
6082
13842
15667
-1688
-7318
11306
-10278
18647
29713
22801
11137
6885
4197
5305
4432
4078
3153
2798
4440
4663
3703
1683
1942
2459
1873
1283
1295
2537
2837
2731
2589
2873
3126
2556
2025
1862
2619
2712
2435
2384
2782
2916
1950
3397
1762
2757
2898
1979
2856
1869
1048
934
1274
969
666
1007
1350
1634
2515
3030
3161
2100
1850
2235
2952
2408
1745
1852
1935
1499
1084
1665
2105
1978
2314
2506
2494
2109
3370
3891
3584
3469
4226
4232
1655
1372
1035
658
898
1598
1775
2679
4872
4045
2428
2219
3142
3062
813
841
1887
3196
2632
2050
2914
3386
2929
1539
2062
2836
2115
1485
1154
1849
1966
1671
1966
2578
2689
2002
2312
2758
154
780
1072
1387
2098
2191
2169
2543
2667
2477
1606
1255
1247
2676
3323
3207
2315
2872
2109
2681
