ECG_Raw
-2308
-1802
-1445
-679
-1259
-888
-863
-1060
-1039
-654
-367
-18
-128
-337
-86
725
366
-169
39
326
228
49
415
598
-906
-665
-559
-592
-268
56
138
-49
-164
-18
175
394
843
1145
1513
1545
1587
1390
1289
1356
1118
775
638
888
855
719
782
1026
1270
1510
1555
1453
588
342
24
553
553
509
244
64
0
42
-23
-184
-428
-318
-142
-392
-666
-792
-655
-476
-568
-1126
-918
-1114
-1296
-1336
-1309
-1201
-859
-830
-878
-872
-814
-831
-414
-968
-1187
-888
-1053
-1489
-1665
-1343
-1179
-999
-821
-909
-882
-124
218
219
-413
-509
-434
-631
-803
-849
-1164
-1057
-640
-597
-592
-557
-564
-589
-659
-591
-494
-850
-1249
-1216
-979
-937
-1233
-1251
-688
-723
-975
-1140
-932
-752
-840
-885
-901
-1163
-1145
-951
-962
-1201
-1573
-1593
-1298
-921
-1173
-1433
-1325
-1114
-1010
-1220
-1395
-1424
-1282
-1318
-1497
-1710
-1583
-1292
-1024
-1103
-1282
-1300
-1156
-1211
-1374
-1397
-1379
-1305
-1373
-1426
-1533
-1608
-1808
-1920
-1965
-1852
-1857
-1942
-1624
-1549
-1895
-2245
-2347
-2134
-2156
-2491
-2967
-2996
-2658
-2262
-2283
-2499
-2684
-2608
-2592
-2715
-2982
-2978
-2734
-2382
-2276
-2233
-2069
-1501
-915
-628
-914
-981
533
1364
1600
1871
1241
757
323
26
-387
-883
-1567
-2178
-2674
-2896
-3120
-3428
-3919
-4222
-4226
-3895
-3676
-3628
-3741
-3669
-3488
-3261
-3214
-3185
-3247
-3297
-3432
-3391
-3196
-2894
-2866
-3005
-3103
-2832
-2501
-2587
-2740
-3043
-3202
-3547
-3516
-3451
-3452
-3226
-2925
-2742
-2942
-3072
-2847
-2305
-2140
-2520
-3119
-3195
-2865
-2618
-2955
-3456
-3680
-3402
-3132
-3053
-3147
-3042
-2861
-2647
-2511
-2204
-1856
-1855
-2214
-1912
-1730
-1879
-2363
-2675
-2650
-2309
-2103
-2107
-2334
-2411
-2347
-2233
-1239
-999
-992
-1096
-1255
-1223
-1251
-1470
-1938
-2162
-2005
-1590
-1439
-1568
-1795
-1707
-1467
-1231
-1218
-1153
-1127
-1333
-1299
-816
-413
-441
-958
-1278
-1091
-524
-350
-719
-1310
-1438
-1207
-962
-1129
-1390
-1493
-1249
-991
-780
-898
-470
-878
-947
-675
-430
-326
-416
-360
-177
132
283
352
483
511
285
86
103
523
892
917
470
158
285
758
867
-84
188
244
641
859
830
668
802
1087
1301
1137
901
847
1214
1674
1847
1542
1222
1080
1225
1375
1374
1443
1535
1672
1632
1418
1444
1411
1322
1096
1044
1103
1238
1149
958
758
817
950
1106
1109
1116
1046
992
892
948
1011
1065
880
689
605
765
836
776
599
694
930
1097
841
464
66
502
577
291
152
420
528
498
275
186
283
593
765
708
389
220
260
529
621
439
14
-183
-110
133
105
-97
-266
-68
161
125
-367
-785
-834
-501
-386
-650
-1099
-1156
-890
-585
-683
-949
-1132
-976
-868
-1020
-1545
-1728
-2039
-1785
-1421
-1733
-2131
-2415
-2407
-2472
-2703
-3089
-3214
-3119
-2939
-3016
-3104
-2999
-2527
-2132
-2086
-2471
-2796
-2911
-2772
-2735
-2810
-3013
-3076
-3074
-2919
-2532
-2475
-2539
-2777
-2873
-2779
-2432
-2135
-1836
-1493
-844
-120
461
526
335
-1199
-2457
-3098
-3861
-4791
-5636
-5964
-5932
-5747
-5806
-6004
-6211
-6123
-5932
-5708
-5669
-5701
-5924
-6221
-6549
-6588
-6171
-6175
-6268
-6266
-5930
-5625
-5546
-5763
-5860
-5771
-5522
-5470
-5520
-5610
-5555
-5556
-5538
-5503
-5258
-5042
-4933
-5045
-5044
-4944
-4799
-4915
-5703
-5329
-5132
-5614
-5879
-5864
-5343
-5686
-4576
-4581
-4439
-4417
-4513
-4539
-4575
-4510
-4321
-4247
-4504
-4567
-4297
-3945
-3723
-3921
-4245
-4444
-4248
-4030
-4044
-4437
-4755
-4759
-4345
-4000
-3911
-4175
-4396
-4492
-4409
-4452
-4578
-4917
-4872
-4597
-4352
-4158
-4181
-4185
-4159
-3994
-3955
-4051
-4345
-4547
-4654
-4577
-4491
-4330
-4249
-4222
-4407
-4595
-4761
-4961
-4812
-4532
-4375
-4592
-4744
-4788
-4615
-4528
-4586
-4887
-5158
-4882
-4621
-4581
-4942
-5288
-5336
-4919
-4594
-4700
-5292
-5683
-5544
-4956
-4649
-4766
-5049
-4938
-4698
-4666
-5083
-5395
-5270
-4796
-4691
-5026
-5425
-5190
-4518
-3943
-4051
-4521
-4862
-4653
-4205
-2885
-2913
-2863
-2881
-2778
-2738
-2738
-2855
-2816
-2679
-2487
-2556
-2707
-2800
-2618
-2436
-2292
-2222
-1890
-1391
-886
-757
-862
-1024
-911
-727
-616
-843
-1154
-1399
-1343
-1192
-1029
-1064
-1080
-851
-590
-321
-286
-372
-554
-557
-466
-953
-517
-696
-549
-475
-664
-1093
-1278
-1172
-881
-822
-890
-972
-806
-652
-638
-880
-1030
-1060
-947
-1003
-1119
-1225
-1075
-889
-724
-776
-917
-869
-888
-871
-884
-777
-661
-448
-284
-116
-89
-64
-102
-75
-102
-44
18
184
245
70
475
218
553
862
673
244
-80
46
265
346
100
-140
-224
30
374
676
581
235
-123
-7
722
461
38
-14
635
1316
1446
916
525
723
1435
1943
2061
1933
2143
2678
3411
3961
4395
4623
4729
4558
4032
1503
1439
1078
157
-735
-1092
-693
-154
99
-84
-187
-10
413
737
978
1036
735
140
-94
143
601
587
91
-558
-754
-603
-318
-281
-362
-535
-605
-657
-531
-347
-124
-197
-472
-837
-894
-667
-259
-77
-91
27
312
177
261
662
1027
1162
912
694
946
1074
1065
927
938
967
1045
1059
1232
1448
1659
1606
1468
1317
1402
1559
1742
1721
1601
1380
1351
1402
1454
1222
904
724
981
1353
1580
1428
1294
1361
1684
1797
1623
1245
1174
598
877
1201
1253
997
978
1278
1667
1587
1124
613
561
725
803
519
237
166
413
547
468
183
83
93
160
29
-76
-75
161
312
335
188
102
-57
-279
-641
-844
-919
-840
-841
-767
-437
-492
-752
-2088
-1727
-1493
-1791
-1901
-1822
-1633
-1666
-1772
-1938
-1987
-2074
-2099
-2104
-1925
-1744
-1592
-1620
-1620
-1624
-1487
-1366
-1235
-1247
-1269
-1351
-1288
-1228
-1144
-1239
-1427
-1336
-1282
-1236
-1283
-1186
-1054
-912
-982
-1071
-1175
-1164
-1237
-1302
-1371
-1273
-1218
-1249
-2156
-2060
-1851
-2072
-2256
-2299
-2063
-1856
-1732
-1845
-1942
-1999
-1815
-1540
-1180
-993
-1890
-2471
-1747
-1558
-1468
-1321
-1280
-1234
-1295
-1411
-1688
-1795
-1558
-917
-516
-694
-1390
-1830
-2494
-1466
-1097
-1028
-949
-1077
-1187
-1179
-939
-870
-1028
-1305
-1197
-774
-300
-281
-582
-1398
-1656
-2091
-2399
-2541
-2395
-2194
-1919
-1732
-1536
-1451
-1355
-1363
-1366
-1478
-1586
-1763
-1764
-1585
-1101
-627
-318
-427
-724
-1029
-1068
-1077
-1198
-1655
-1535
-1414
-1417
-1127
-938
-728
-656
-652
-414
-76
298
440
464
355
289
186
266
520
1024
1426
1663
1667
1766
1901
2000
1767
1329
703
103
-533
-964
-1228
-1347
-1740
-2439
-3205
-3374
-2928
-2251
-2077
-2413
-2916
-1719
-2297
-1629
-1186
-1518
-1353
-1045
-815
-998
-1271
-1346
-1004
-676
-626
-945
-1187
-1217
-991
-849
-784
-810
-721
-681
-623
-608
-441
-279
-176
-282
-296
-135
250
409
214
-423
-737
-194
-190
-313
-443
-538
-381
-188
-132
747
954
845
792
902
880
737
493
447
474
505
314
134
98
415
778
1021
922
738
582
652
728
754
523
235
-32
-54
10
166
213
-110
-396
-452
-195
-260
-553
-901
-965
-916
-846
-920
-913
-886
-816
-930
-1082
-1242
-1246
-1303
-1348
-1409
-1254
-1084
-969
-1126
-1330
-1531
-1526
-1492
-1400
-1439
-1543
-1770
-1823
-1608
-1048
-865
-1196
-1267
-953
-655
-516
-678
-893
-352
-1067
-1337
-943
-747
-859
-1171
-1165
-893
-558
-581
-773
-923
-745
-584
-647
-1023
-1210
-1001
-445
-113
-144
-451
-547
-447
-253
-270
-344
-462
-506
-436
-318
-103
-113
-306
-581
-540
-316
-99
-263
-579
-810
-679
-476
-338
-451
-773
-117
-114
-46
128
159
70
-201
-352
-369
-176
-47
45
4
-1
-115
-206
-295
-206
-128
-96
-306
-225
67
215
167
-77
-138
-24
212
271
334
456
728
771
525
97
17
240
464
151
-455
-877
-609
472
364
44
222
352
322
522
890
1131
761
141
-213
22
237
-775
-1277
-1184
-579
-128
21
-65
-35
39
166
168
200
133
95
37
133
164
116
-48
55
453
994
1176
1075
955
1264
1725
1946
1571
1022
662
705
708
1697
4332
4507
4422
4543
3614
2803
2277
2138
1822
1146
269
-141
-83
60
-312
-940
-1281
-842
179
-334
-1083
-1430
-1027
-473
-292
-683
-1058
-1061
-609
-150
-296
-286
-109
-312
-542
-642
-375
-48
191
160
164
15
307
190
68
-31
72
204
351
144
-140
-281
-299
-104
48
133
2
-126
-203
-52
116
267
183
45
-121
-69
68
221
122
-49
-161
53
360
599
532
452
773
894
817
500
507
560
-26
887
993
691
537
721
1171
1310
1111
784
782
866
419
74
158
686
1003
914
594
563
702
715
307
-61
-70
301
291
86
378
1284
1101
788
693
484
56
-355
-311
-77
86
-276
-274
-608
-382
-139
-122
-432
-585
-480
-216
-241
-428
-553
-341
-124
-94
-371
-579
-691
-733
-959
-1145
-1172
-897
-677
-567
-582
-426
-206
36
93
135
64
-74
-368
-461
-33
-481
-943
-827
-363
-24
-257
-609
-659
-201
176
285
-32
-348
-349
-104
228
222
-6
-253
-185
0
173
110
7
-144
-127
4
323
509
467
150
21
177
499
476
166
-147
2
282
-42
-190
-50
11
154
88
434
649
199
-129
-150
181
985
935
665
383
396
517
630
490
263
1
-84
-144
-124
-147
-53
55
162
9
-232
-388
-142
261
566
479
303
230
412
481
342
341
311
233
11
-34
65
283
358
436
505
624
560
454
-169
411
434
167
155
288
456
377
160
-164
-345
-427
-279
-75
163
180
110
66
349
718
922
113
-224
-117
13
-288
-364
436
651
508
-50
-49
119
130
67
-54
20
212
530
728
879
987
1240
1430
2247
4091
5094
5273
5300
4936
4414
3697
2101
1416
814
-340
-640
-668
-686
-649
-578
-193
-48
-239
-507
-347
-151
134
141
-194
-315
-68
520
921
958
413
398
611
682
550
549
583
480
447
540
509
431
280
297
391
532
639
822
887
444
463
380
258
429
766
1007
775
818
1197
1502
1561
1329
1189
1313
1341
1383
1361
1308
1020
725
577
820
1142
1308
1121
953
945
1190
1322
1293
1054
856
642
503
336
330
374
469
330
66
-236
-245
-77
-120
-419
-432
-501
-524
-375
-286
-228
-229
-89
-5
1
-230
-471
-673
-648
-550
-408
-468
-568
-626
-337
83
422
320
3
-287
-237
-114
-45
-175
-206
-133
45
47
-15
-142
-112
-86
-58
-355
-550
-581
-511
-279
253
290
52
198
227
67
-272
-349
-172
111
121
19
-31
183
320
253
-63
-208
-147
71
61
-117
-442
-580
-533
-227
72
294
258
181
134
295
441
197
-66
-260
-212
-139
-84
-177
-156
9
378
584
604
485
181
-440
-1222
-1263
-875
-504
-343
-519
-641
-528
-72
289
337
-21
-278
-205
220
481
461
238
236
388
552
442
236
30
61
158
223
420
587
709
581
368
164
288
593
907
813
482
190
366
729
912
-295
-708
-501
-423
-325
-212
3
75
57
-4
179
433
643
535
347
206
298
337
253
11
-49
333
408
358
220
271
377
470
263
-40
-272
-114
224
614
773
948
1253
1856
2429
2841
2999
3214
3488
3827
3915
3823
3575
962
-980
-1442
-1408
-1037
-734
-976
-1134
-623
-426
-519
-749
-415
-42
-108
-494
-937
-1026
-899
-627
-454
-271
-177
-89
-120
-84
-35
92
82
16
-145
-205
-293
-318
-370
-287
-226
-174
-187
-599
-43
26
-219
-567
-499
-160
98
-847
-531
-151
-28
-234
-287
-115
185
222
166
138
303
327
191
-6
83
279
397
221
64
63
290
385
358
210
239
349
542
594
592
474
458
529
774
911
907
707
1127
895
1034
877
1040
1205
1219
956
769
797
1087
1229
1154
857
734
797
1003
974
728
333
113
23
117
193
318
333
310
174
152
194
322
227
-27
-401
-596
-707
-713
-785
-782
-778
-701
-704
-646
-757
-850
-816
-737
-642
-687
-707
-733
-640
-619
-622
-778
-921
-1067
-1027
-950
-850
-959
-1118
-1243
-1096
-894
-757
-904
-1017
-970
-676
-538
-653
-985
-1043
-784
-361
-319
-1122
-1269
-1114
-808
-826
-1187
-1768
-2045
-1881
-1362
-1120
-1318
-1774
-1457
-1288
-1609
-1403
-1141
-1258
-1488
-1605
-1423
-1312
-1352
-1553
-1603
-1569
-1417
-1328
-1218
-1285
-1474
-1793
-1911
-1769
-1796
-1815
-1748
-1851
-1958
-2016
-1858
-1774
-1797
-1944
-1872
-1709
-1582
-1701
-1748
-1641
-1372
-1354
-1558
-1882
-1972
-2044
-2290
-1688
-1554
-1717
-1984
-1885
-1604
-1461
-1767
-2099
-2154
-1771
-1612
-2095
-2393
-2333
-1904
-1613
-1595
-1893
-2084
-2060
-1766
-1597
-1635
-1895
-1994
-1975
-1916
-2111
-2317
-2336
-1963
-1648
-1610
-1883
-1930
-1654
-1264
-1335
-1768
-2207
-2184
-1951
-1798
960
-533
-2725
-2321
-2004
-1739
-1605
-1987
-2055
-1778
-1113
-1163
-1388
-1503
-1252
-1056
-1602
-1825
-1660
-1546
-1887
-1960
-1409
-1305
-1393
-1186
-1264
-1229
-798
-271
-715
-1159
-817
-432
-366
-1067
-899
-849
-979
-993
-1094
-1299
-1398
-1065
-825
-741
-1075
-1018
-605
-98
-471
-866
-552
-178
-128
-792
-807
-215
-214
376
85
-213
307
722
748
-137
-277
-25
87
-342
-660
-304
-83
-97
-88
393
874
478
221
459
821
240
-497
-1044
-1104
-970
-810
-993
-1176
-1134
-513
-247
-173
-960
-1315
-1239
-892
-567
-373
-511
-1165
-1409
-1662
-1037
-897
-967
-1148
-1058
-538
-1002
-1233
-1072
-878
-1180
-1302
-737
-700
-962
-1282
-1162
-821
-574
-807
-1155
-1249
-820
-299
-685
-499
-628
-573
-769
-750
-600
-362
-320
-385
-583
-548
-445
-624
-764
-698
-593
-398
-369
-395
-352
-136
206
69
-166
-305
-210
-193
-713
-913
-864
-596
-526
-491
-624
-591
-345
90
-461
84
464
-63
-459
-551
-588
-613
-730
-750
-789
-772
-532
-149
-273
-273
165
-233
-322
81
186
-700
-617
-30
351
295
-42
-75
453
407
187
-78
-107
-61
23
-224
-352
-138
-141
-707
-572
-192
-19
-127
-54
20
92
57
90
-124
-395
-413
-119
395
544
216
-675
-439
85
222
-144
-763
-938
96
479
537
287
227
250
269
436
546
521
26
46
457
2918
4175
4274
4034
3984
3534
2731
1886
719
104
-568
-1378
-1504
-1700
-2075
-1770
-1258
-1064
-832
-304
-335
-397
-610
-839
-992
-873
-853
-1041
-1588
-1426
-1009
-925
-1120
-974
-275
-252
-119
-208
-857
-938
-756
-612
-625
-475
-132
-120
-129
-276
-246
-60
-176
-585
-781
-191
-310
-478
-302
-147
-281
-250
-109
-308
-425
-243
256
267
292
371
259
159
231
807
590
380
165
223
389
455
366
367
419
486
693
896
714
559
630
699
696
455
304
216
368
581
675
394
508
808
469
-22
-122
203
-82
-501
-631
-458
-1033
-1000
-505
-583
-622
-427
-609
-973
-1234
-1059
-987
-1292
-1150
-728
-386
-568
-724
-1017
-1083
-941
-726
-943
-1195
-937
-473
-219
-1076
-1383
-1059
-304
-628
-991
-666
-482
-624
-1003
-856
-834
-676
-681
-838
-702
-171
-374
-723
-679
-423
-349
-575
-481
-329
-514
-545
-367
-381
-631
-698
-632
-396
-387
-319
-223
-139
-507
-691
-569
-156
-287
-514
-458
-193
-495
-166
-226
-199
-253
-486
-577
-494
-243
-378
-570
-444
-179
54
-13
-183
-438
-623
-841
-892
-808
-594
-608
-745
-378
-178
-72
169
-413
69
-527
-821
-352
-319
-543
-342
172
-69
-574
-798
-550
-262
-195
-895
-957
-497
483
403
149
-81
-57
-38
-132
-701
-821
-733
-733
-740
-511
-275
-182
-434
-693
-611
-491
-529
-774
-875
-852
-697
-665
-601
-526
-344
-343
-531
-904
-697
-372
-57
-160
-232
-287
-171
-53
155
327
564
775
1070
1636
1976
2532
3734
3868
3625
3188
3425
3559
-1025
-1278
-1408
-1225
-1285
-926
-617
-786
-776
-559
-807
-1228
-1305
-753
-786
-993
-861
-483
-248
-682
-887
-863
-985
-1259
-1370
-781
-404
-263
-635
-550
-197
-551
-501
-29
103
-264
-247
-23
-273
-534
-361
642
680
373
-67
23
94
-387
-549
-333
427
555
509
27
-134
-90
6
-121
-214
-80
94
254
203
110
-40
-77
-147
-186
-324
-337
-553
-814
-1057
-1152
-894
-939
-1232
-1144
-923
-1029
-1221
-1193
-1135
-1173
-1502
-1793
-1832
-1744
-1638
-1334
-1180
-1090
-1144
-1084
-966
-827
-962
-1242
-1575
-1617
-1257
-1303
-1499
-1789
-1673
-1461
-1415
-1393
-1434
-597
-1446
-1784
-1537
-941
-810
-1253
-1876
-1933
-1432
-733
-504
-814
-973
-865
-860
-999
-1460
-1449
-1261
-1021
-870
-604
-673
-951
-970
-715
-954
-1259
-1160
-997
-1034
-1250
-1029
-384
-1233
-1715
-1402
-1051
-948
-1179
-941
-579
-830
-1081
-948
-689
-503
-566
-592
-483
-675
-997
-1391
-1313
-1214
-1355
-1560
-1725
-1529
-1146
-763
-731
-857
-804
-661
-637
-800
-857
-878
-912
-1427
-1382
-1442
-1222
-837
-1169
-1475
-1435
-969
-647
-674
-1144
-1033
-718
-547
-518
-727
-994
-1325
-1223
-1090
-1280
-1647
-1973
-1909
-1646
-1350
-1329
-1425
-1642
-1641
-1513
-1302
-1361
-1438
-1378
-1197
-1033
-1437
-1755
-1721
-1309
-1063
-1454
-1128
-886
-933
-1170
-1015
-88
-250
-633
-669
31
862
1295
1280
1823
2620
2734
2294
2204
2065
1252
241
-831
-1011
-1374
-2699
-2980
-2785
-2393
-2562
-2677
-2185
-1796
-1594
-1841
-1836
-1442
-2191
-1868
-1709
-1907
-1670
-1499
-1544
-1879
-1770
-1567
-1637
-1707
-1669
-1850
-1875
-1602
-1185
-1430
-1669
-1566
-1421
-1405
-2010
-2277
-2144
-1201
-1129
-1452
-1742
-1296
-934
-889
-1074
-961
-1203
-1145
-1002
-1012
-1035
-785
-594
-988
-1080
-887
-859
-1115
-1246
-1084
-897
-672
-693
-795
-629
-204
-415
-694
-578
-476
-617
-1041
-947
-979
-809
-510
-540
-614
-595
-547
-1074
-1079
-818
-666
-720
-1020
-1202
-1085
-1149
-1352
-1642
-1706
-1662
-1555
-1632
-1711
-1786
-1713
-1679
-1695
-1545
-1538
-1941
-2245
-2204
-1760
-1482
-1595
-2002
-1581
-1051
-1414
-1781
-1708
-1521
-1467
-1663
-1681
-1401
-1169
-1688
-1415
-1282
-1289
-1420
-1389
-1268
-1051
-1019
-1093
-1367
-1392
-1358
-1626
-1705
-1520
-1321
-1217
-1393
-1530
-1118
-866
-911
-1428
-1258
-884
-902
-1318
-1827
-1786
-838
-967
-1439
-1605
-1187
-900
-1209
-1290
-1222
-1288
-1253
-1285
-1129
-636
-735
-1045
-1342
-1075
-832
-1440
-1783
-1667
-1326
-997
-974
-1027
-905
-800
-767
-930
-1018
-1112
-1341
-1456
-1463
-1313
-1251
-1215
-1035
-980
-1078
-1334
-1344
-809
-836
-1080
-353
-742
-407
-618
-1050
-1338
-1446
-1338
-1264
-1356
-1386
-1398
-1235
-1042
-1428
-462
-971
747
1551
3121
3431
3311
2734
2717
2708
1450
463
-237
-979
-1438
-1942
-2175
-1682
-1106
-1185
-1441
-1319
-949
-1380
-1957
-2111
-1742
-1468
-1549
-1459
-1174
-1002
-1124
-1146
-1174
-1871
-1201
-1477
-1469
-575
-445
-592
-774
-682
-612
-1010
-1306
-1443
-1355
-1310
-1375
-1567
-1176
-499
-184
-556
-684
-446
-718
-1122
-1184
-987
-941
-1021
-739
-339
-81
-34
-348
-423
-140
-301
-203
71
187
107
243
551
395
201
-6
-49
12
203
49
-246
-194
393
834
134
-49
443
1092
458
-215
-251
-90
-165
-447
-339
-169
-83
-851
-736
-620
-1118
-1371
-1185
-838
-1319
-1553
-1338
-1240
-1434
-1372
-1387
-957
-1143
-890
-874
-941
-1248
-1420
-1482
-1237
-1177
-1297
-1472
-1089
-595
-754
-1119
-1120
-549
-538
-941
-1042
-480
-541
-898
-1383
-1224
-974
-989
-1098
-1011
-722
-442
-645
-711
-433
45
-90
-254
-464
-675
-905
-1103
-992
-782
-559
-502
-330
-110
-245
-478
-802
-873
-215
-264
-823
-778
-451
-232
-438
-537
-398
-424
-515
-661
-660
-768
-1157
-933
-422
-421
-860
-802
543
586
-21
-1010
-781
-439
-514
-624
-599
-474
-192
212
-166
-797
-37
106
-44
-208
-339
-868
-909
-552
41
-120
-250
63
194
161
-81
-235
123
415
86
26
-17
-185
-216
-229
-399
-345
-80
-508
-405
-572
-294
369
316
138
-230
-353
-278
169
43
-373
-687
-213
171
-439
-614
-255
341
211
263
1079
1365
1488
1817
2170
2524
2817
3092
3594
4087
3885
3782
3875
3403
40
-1497
-1361
-1475
-1269
-477
-555
-872
-1009
-756
-602
-873
-823
-556
-546
-719
-650
-419
-630
-758
-246
-21
-76
-406
-306
-184
-521
-594
-620
-662
-499
-277
-414
-410
-400
-443
-664
-289
-181
-555
-702
-111
155
157
-309
-235
110
151
-189
-280
182
137
-113
-264
-40
166
56
29
105
-78
-202
-34
582
540
318
384
828
1146
321
-120
334
1578
1102
1009
1259
1336
965
705
763
844
851
513
316
263
353
355
377
330
239
213
460
590
549
93
117
319
152
-138
-270
-406
-559
-571
-236
-160
-210
-461
-370
-135
-556
-471
6
201
-515
-639
-410
-461
-853
-979
-352
-183
-240
-231
52
274
-98
-197
-10
72
-83
-452
-555
82
201
24
-435
-302
-34
-137
-356
-355
-105
-157
-665
-238
-257
-368
-329
-8
330
106
-238
-304
97
121
-22
-314
-239
-83
-96
-69
130
298
141
38
-10
-113
-264
-450
-385
-226
-120
-136
-103
-70
-96
-590
-709
-80
50
-153
192
-183
-567
-324
-78
-90
-391
-561
-558
-379
-220
-243
-230
-345
-412
-422
-494
-413
-216
-299
-498
-433
75
57
-91
-225
-165
-73
-413
67
-13
-83
246
536
681
402
-56
-423
-347
-380
-174
-4
-96
90
151
219
514
776
1015
1383
1965
2876
3931
3860
3863
4289
4286
4015
3055
2615
2222
1045
285
-399
-1403
-1664
-1699
-1296
-1013
-777
-689
-647
-542
-784
-1048
-1177
-724
-641
-645
-845
-906
-760
-684
-966
-949
-677
-402
-543
-594
-180
68
168
-285
-483
-403
-257
-481
-692
-564
-402
-373
-500
-298
10
-220
-525
-503
-49
-148
-418
-803
-546
92
-28
182
377
300
250
-12
-104
5
183
64
92
814
1162
1302
1031
847
772
783
708
506
32
147
496
791
772
861
945
859
850
862
768
672
710
-383
412
1016
388
-22
235
936
464
-132
-453
-476
-604
-594
-409
-375
-661
-458
-111
-422
-787
-753
-247
-301
-509
-831
-775
-583
-557
-793
-905
-587
-468
-518
-780
-682
-515
163
-388
-409
-179
-277
-619
-729
-297
-90
46
-97
-342
-449
-112
-33
-190
-647
-527
-266
-295
-452
-429
-206
-222
-307
-569
-517
-304
-309
-504
-510
-170
-164
-267
56
-213
-259
-111
-286
-530
-547
-300
-385
-538
-443
-160
37
-401
-526
-193
209
301
-211
-811
-1026
-675
-402
-590
-1472
-1184
-590
-680
-1007
-859
-261
-509
-877
-975
-734
-479
-511
-685
-503
-605
-514
-362
-373
-815
-844
-764
-980
-894
-443
-182
-688
-995
-293
-33
-228
-864
-698
-338
-37
11
67
-254
-333
-75
360
122
-151
-166
-70
-69
-405
-579
-694
86
-7
-277
-318
-500
-783
-1004
-874
-635
-440
-541
-677
-182
-196
-112
405
344
221
85
137
290
461
530
804
1809
2362
2892
3472
3531
3595
3722
3551
1003
-1048
-1439
-1467
-1418
-1337
-1306
-1196
-854
-667
-573
-978
-1062
-788
-540
-826
-783
-689
-745
-938
-784
-527
-283
-227
-171
-482
-662
-668
-635
-515
-201
-157
-548
-644
-801
76
-410
-358
-64
61
170
-220
-469
-406
-39
-142
-281
-253
-151
-64
-46
9
101
-138
-320
-318
-237
-288
-182
360
391
237
390
800
1045
587
571
918
1060
677
512
982
1074
1196
1385
1392
1294
1305
1142
805
509
411
447
373
-15
34
366
1072
1225
1235
886
822
947
744
225
-226
-324
-119
-4
-511
-783
-707
-53
75
97
5
-491
-1162
-1183
-739
-689
-671
-355
-172
-141
-601
-650
-390
-20
-287
-611
-531
-208
-58
-730
-878
-499
425
199
313
615
732
-85
-476
-523
-421
-583
-700
-496
-291
38
-363
-204
-442
-445
248
288
71
13
138
-36
-825
-668
-226
-199
-341
-38
863
758
432
193
324
341
-267
-385
-165
219
221
303
322
85
-102
-173
-281
-430
260
224
378
63
-412
-221
32
-378
-677
-601
-86
-56
-59
-2
-8
37
265
234
62
-190
16
294
144
19
186
556
415
252
184
-905
-950
-776
95
554
433
-219
398
801
818
331
484
798
585
348
438
621
343
119
189
340
70
-164
-335
-436
-535
-505
-489
-680
-1272
-1053
-614
-983
-1428
-1257
-152
-333
-831
620
53
591
289
-91
-8
463
290
12
95
423
759
378
110
262
827
698
463
386
468
493
550
788
1050
1049
956
873
-118
-290
122
-217
-455
16
488
206
-163
-205
193
226
-496
94
682
-5
1086
417
267
267
602
950
625
443
827
725
296
-215
10
205
-187
-277
-110
-129
-400
-548
-484
-352
-417
-554
-308
-93
-145
-919
-876
-434
-374
-903
-1129
-332
-603
-347
-538
-200
269
410
-67
-481
-168
68
55
-296
-315
-252
-273
-300
-313
-657
-822
-790
-418
-264
-173
-21
-635
-394
-264
-381
-389
-60
471
132
-226
352
766
687
-52
231
166
707
736
-308
-582
-562
-883
-1307
-1290
-1151
-1178
-1163
-806
-523
-1093
-1354
-1234
-1085
-1335
-1453
-1064
-772
-909
-1234
-1000
-670
-409
-523
-666
-677
-615
-752
-1007
-1558
-1447
-976
-313
-228
-569
-323
-112
176
-111
-285
10
258
-3
32
410
904
814
857
1547
1919
2204
2741
3181
3694
3815
1381
767
311
-1497
-1923
-1718
-1394
-1637
-1671
-1012
-817
-788
-712
-652
-836
-755
-585
-687
-803
-735
-642
-764
-833
-702
-627
-582
-484
-349
-268
-619
-646
-382
-255
-612
-515
-600
-685
-597
-618
-694
-586
-21
79
-37
-352
-274
-144
-445
-523
-291
141
296
201
76
-268
-541
-683
-156
234
425
490
739
931
112
-275
-134
656
530
405
454
60
-54
131
367
248
329
1020
1020
671
75
197
365
98
158
561
882
590
441
519
-217
-843
-816
-741
-883
-824
-597
-571
-732
-679
-248
-203
-767
-1365
-1224
-1085
-999
-1008
-968
-942
-977
-1028
-1328
-1384
-1273
-1193
-1176
-955
-471
-513
-601
-573
-608
-774
-1238
-1191
-759
-647
-551
-339
-415
-538
-778
-875
-917
-910
-748
-669
-476
-304
-484
-492
-18
-75
-376
-538
-217
39
-301
-516
-505
-401
-465
-595
-997
-891
-483
-214
-570
-800
-522
-480
-655
-917
-454
-419
-601
-1124
-887
-1124
-849
-1499
-1398
-1121
-833
-797
-743
-630
-387
-85
-534
-1029
-1074
-476
-696
-1175
-1268
-764
-350
-646
-880
-774
-152
-122
-312
-762
-716
-562
-665
-44
-511
-359
-843
-1100
-961
-414
-433
-511
-590
-652
-654
-395
-298
-323
-515
-362
-78
-64
-317
-534
-868
-889
-722
-479
-480
-356
305
590
723
422
682
861
2982
2947
2344
1806
446
-247
-1490
-1578
-1511
-2068
-2094
-1532
-635
-939
-1196
-715
-659
-964
-1286
-986
-780
-1186
-1174
-805
-488
-759
-1011
-1054
-810
-467
-459
-920
-764
-569
-626
-721
-672
-574
-662
-764
-711
-453
-547
-723
-572
17
-134
-482
-699
-581
-589
-947
-810
-438
-226
-326
-247
32
-36
-124
-169
-159
-172
-347
-283
-127
178
449
481
-220
-393
-246
63
95
204
510
611
652
358
509
359
64
8
297
166
-37
17
177
301
694
970
989
248
192
430
-42
-702
-976
-952
-243
-610
-974
-958
-671
-533
-1206
-1413
-1135
-608
-941
-1311
-995
-721
-803
-1406
-1217
-754
-489
-562
-451
-132
-153
-214
-555
-784
-907
-1114
-1210
-1126
-976
-1191
-1319
-536
-101
-122
-904
-466
-497
-576
-430
-382
-411
-431
-346
-287
-394
-316
-131
-283
-523
-540
29
-47
-517
-526
-314
-301
-625
-844
-715
-615
-618
-799
-719
-553
-693
-729
-452
23
-330
-517
-162
-340
-594
-463
128
37
-207
-397
-211
8
-155
-296
-210
-36
-152
-220
-292
-358
-300
196
308
259
236
354
315
-274
-196
168
0
-414
-422
353
326
-604
-19
-454
-406
-166
-243
-543
-714
-671
-473
-112
150
-195
-487
-315
-176
-208
-461
-366
-147
148
311
520
393
164
139
670
952
1158
1578
2127
2798
3077
2868
2960
963
-101
-1349
-1489
-927
-724
-609
-475
-437
-362
-169
-204
-413
-928
-827
-545
-544
-688
-632
-392
-411
-456
-650
-602
-307
145
10
-119
141
322
371
60
-98
-203
-346
-267
-302
-355
-283
114
35
-289
-299
342
365
116
-274
-119
115
-9
-234
-334
-342
-233
-29
150
113
119
127
131
157
-112
-316
-272
259
369
388
641
904
1071
424
404
789
792
1066
1416
1643
1108
828
850
786
504
347
356
348
472
883
789
850
109
331
322
-15
-139
-241
-445
-487
-368
-639
-935
-620
-730
-455
-860
-1076
-876
-251
-392
-586
-208
79
124
-174
-166
-184
-801
-827
-470
-409
-850
-932
60
139
-280
-828
-478
-104
-496
-728
-544
-65
-222
-424
-470
-351
-192
-535
-680
-237
-34
-118
-190
-424
-415
-256
-495
-737
-555
305
164
-254
-493
-404
-570
-1070
-788
-382
-632
-700
-323
-148
-746
-1120
-594
-411
-509
-600
-283
148
529
306
-842
-1648
-851
-762
-868
-955
-795
-607
-621
-632
-536
-439
-391
-198
-213
-559
-773
-611
-707
-1012
-1195
-820
-510
-983
-1196
-1044
-902
-1185
-1305
-882
-771
-820
-902
-851
-868
-1156
-1000
-650
-675
-874
-560
-351
-112
-101
-342
-59
505
873
886
1397
2884
3007
2882
2951
2868
2431
1090
553
-32
-1601
-2025
-2024
-2001
-2168
-1311
-1243
-1276
-1513
-1595
-1328
-1286
-1360
-1503
-1399
-1201
-931
-871
-828
-1081
-1187
-1107
-922
-1041
-1194
-1159
-934
-802
-1340
-1437
-1131
-924
-1312
-1450
-621
-465
-690
-1068
-953
-902
-1221
-706
-631
-699
-426
-392
-528
-868
-772
-522
-297
-339
-337
-375
-468
-532
-730
-754
-621
-302
-136
143
434
239
23
-35
-80
-286
-560
-218
264
462
428
559
408
42
-281
138
202
211
145
-177
-192
-86
-179
-212
-67
-142
-466
-612
-542
-824
-950
-747
-673
-1149
-1218
-1088
-1198
-1275
-1085
-775
-977
-1195
-1319
-1254
-1136
-1238
-1456
-1538
-1115
-1218
-1449
-1458
-1297
-1279
-1193
-962
-1003
-1151
-1314
-1073
-752
-1008
-1302
-1201
-462
-551
-989
-1556
-1272
-899
-1115
-1318
-1146
-633
-740
-842
-635
-599
-731
-885
-605
-262
-516
-896
-1134
-850
-816
-814
-758
-1006
-1173
-1120
-804
-750
-677
-586
-677
-720
-550
-533
-678
-976
-814
-614
-953
-1036
-756
-571
-882
-971
-381
-373
-644
-920
-760
-713
-1261
-1295
-1013
-1091
-917
-335
-438
-773
-744
-658
-846
-921
-862
-886
-922
-778
-513
-642
-829
-937
-759
-701
-773
-757
-624
-564
-457
-438
-590
-728
-819
-736
-613
-807
-978
-311
-702
-775
-991
-968
-804
-623
-778
-1092
-1288
-1125
-1075
-1476
-1434
-1060
-461
-446
-455
-675
-875
-963
-1060
-1229
-1362
-952
-450
-57
-246
-339
-101
345
230
208
1082
1734
2234
3201
1353
257
-384
-1631
-1973
-2143
-2333
-2152
-1795
-1620
-1723
-1620
-1408
-1537
-1605
-1500
-1609
-1796
-1781
-1385
-1824
-1916
-1679
-1246
-1307
-1266
-688
-517
-625
-1327
-1400
-1187
-935
-1135
-522
-1110
-173
-193
-704
-1465
-1228
-860
-741
-790
-712
-532
-524
-532
-880
-941
-772
-535
-591
-528
-199
-182
-259
-411
-527
-412
-179
88
186
35
-92
-128
-53
-4
596
279
502
710
253
28
271
817
536
302
944
1240
1068
251
357
716
675
389
319
529
537
521
402
253
72
-147
8
-316
-654
-645
28
5
-371
-991
-808
-1159
-876
-367
-321
-497
-828
-691
-458
-619
-836
-795
-475
-560
-648
-410
-332
-518
-962
-663
-288
-857
-1319
-1293
-668
-695
-870
-1145
-1091
-857
-475
-590
-797
-851
-574
-247
-611
-788
-859
-757
-571
-332
10
-151
-560
-647
-68
-89
-408
-969
-805
-454
-348
-523
-514
-241
-346
-557
-656
-526
-468
-710
-642
-397
-266
-337
-284
-291
-405
-430
-590
-758
-135
246
-448
-612
-360
-171
-602
-892
-353
-65
-91
-449
-311
-71
-173
-332
-338
-367
-443
-447
-494
-492
-343
-218
-349
-340
176
227
-22
-613
-485
-191
-356
-655
-703
0
-199
242
448
-38
-152
105
210
-63
-52
458
306
-13
62
317
364
-55
-40
148
6
-196
-189
74
108
96
-90
-125
-53
-167
-406
-518
-322
-240
-229
307
-186
-68
-39
210
458
204
73
532
597
458
917
1720
2406
2682
2969
4126
3474
2243
1161
647
57
-1348
-1855
-2082
-1956
-1679
-1322
-931
-835
-676
-620
-815
-897
-915
-1102
-1145
-1028
-672
-508
-328
-380
-619
-784
-774
-715
-716
-856
-686
-321
-204
-541
-781
-771
-721
-687
-665
-604
-411
14
-16
-247
-525
-191
174
-473
-873
-397
40
-214
52
466
157
-313
-403
98
35
-221
-247
170
600
567
358
307
421
473
508
136
-23
140
696
671
559
588
623
602
659
847
944
429
330
567
678
757
272
231
508
447
207
-47
171
342
-307
-576
-491
-581
-951
-1073
-489
-392
-535
-604
-340
-150
-664
-844
-618
-124
-372
-695
-708
-577
-613
-1032
-978
-744
-621
-575
-684
-705
-390
-123
-79
-624
-719
-569
-345
-379
-392
-299
-108
180
93
-297
-525
-407
-407
-535
-713
-559
-341
-307
-266
-195
6
13
-186
-247
-208
-281
-311
-499
-710
-765
-174
149
-352
-421
-155
-49
42
-82
-195
-132
127
62
-54
-173
-128
-195
-420
-400
-316
-396
-476
-582
-575
-486
-333
-43
-64
-408
-555
-418
-38
64
-184
-788
-531
-35
-37
-396
-7
151
-120
-134
18
15
-158
-217
-4
155
268
-48
-276
-325
12
153
23
-164
-141
315
253
-82
-630
-487
-292
-448
-397
-91
70
-73
27
489
373
153
490
167
398
389
231
171
167
230
296
319
169
359
743
699
310
197
570
466
121
-90
231
253
78
-124
51
781
705
424
221
276
179
-244
-144
29
-428
-588
-307
225
372
446
467
140
120
401
853
809
967
2401
3289
3966
4733
5067
5252
4444
3769
3205
1736
760
-66
-910
-1000
-922
-851
-977
-1036
-872
-787
-809
-1214
-1291
-1112
-765
-1030
-840
-536
-629
-843
-724
-162
-236
-445
-564
-473
-380
-303
-198
-112
-605
-882
-767
29
33
-259
-537
-210
117
-250
-512
-468
-266
-317
-278
-194
-347
-431
-170
-71
-712
-1036
-662
-1083
-1120
-728
-807
-1106
-1122
-562
-53
-464
-896
-964
-697
-755
-845
-867
-724
-474
-197
-301
-473
-1058
-977
-750
-825
-903
-692
-479
-355
-830
-914
-1107
-943
-642
-749
-865
-856
-799
-763
-947
-1098
-1229
-1620
-1690
-1583
-1720
-2109
-2350
-1942
-1756
-1911
-2449
-2091
-1441
-1366
-1722
-2359
-2491
-1661
-1620
-882
-742
-1536
-1598
-1367
-1715
-2038
-1896
-1251
-1279
-1261
-839
-862
-1073
-1137
-905
-748
-825
-827
-861
-1437
-1513
-1314
-1417
-1659
-1524
-671
-574
-596
-448
-448
-587
-934
-497
-605
-625
-776
-861
-818
-820
-856
-669
-275
-450
-610
-254
-125
-246
-638
-636
-646
-1024
-978
-756
-852
-1006
-863
-318
-279
-305
-398
-439
-406
-363
-412
-466
-688
-777
-741
118
-136
-602
-1028
-777
-494
-738
-872
-656
-107
-208
-461
-821
-719
-445
-206
-275
-227
146
183
59
-479
-572
-414
-94
-111
-89
163
251
249
-45
-240
-433
-653
-363
216
-45
112
251
-174
-524
-611
-309
-274
-308
-223
-43
108
44
53
155
-60
-257
-271
-268
-392
-363
-71
-61
-63
123
93
-172
-688
-517
-252
-453
-452
63
1026
867
1089
1679
2828
3092
3332
4062
4436
4661
4254
3860
3564
2847
2212
1436
-149
-630
-811
-1084
-1276
-1270
-777
-574
-485
-603
-638
-589
-637
-699
-684
-764
-890
-865
-579
-327
-602
-539
-477
-512
-342
-46
-433
-23
31
-290
-826
-538
-242
-669
-736
-376
-37
-300
-391
6
148
234
261
146
67
311
463
373
-445
-503
-171
53
-247
525
280
107
189
178
-110
56
401
442
361
547
653
510
718
974
1229
1027
748
779
1313
1125
677
497
907
1191
634
353
442
773
580
289
336
748
1115
1184
365
-1
-483
-531
-247
-58
1
60
87
-94
-101
-152
-916
-1064
-132
-495
-706
-1128
-1005
-621
-640
-818
-1210
-1025
-577
-145
-281
-337
-60
119
-1046
-732
-676
-547
-441
-292
-93
66
-370
-593
-508
-203
-312
-499
-757
-634
-317
-88
-351
-581
-483
-269
-114
-327
-420
-310
-131
-258
-353
-257
-218
-249
-466
-398
-160
-169
-318
-567
-89
-269
-811
-892
-307
-473
-725
-445
-274
-335
-502
-318
-122
-84
-40
51
-24
-25
2
-452
-627
-407
-87
-34
-421
-138
-134
358
278
195
-177
-315
-184
76
-153
-373
-134
171
398
299
109
2
-86
-120
-139
-199
-138
15
195
245
350
287
44
-176
-379
-278
-42
186
109
44
17
-139
406
550
-126
-372
-202
-60
-622
-1195
-987
-530
-319
-364
11
514
347
-1
-41
-272
-855
-1244
-596
-221
-250
-530
0
720
501
-178
-407
390
649
795
1592
2148
2561
3132
1373
-270
-756
-312
-313
-819
-1548
-1119
-668
-1114
-1278
-963
-651
-987
-1048
-195
-177
-630
-1228
-863
-419
-497
-625
-512
-432
-562
-540
-443
-650
-821
-516
-221
-60
-553
-200
-475
74
-203
-505
-274
-144
-595
-566
-281
-391
-653
-529
298
335
131
-187
-130
-59
-404
-534
-353
206
171
94
435
649
628
272
447
772
609
392
191
649
896
885
889
1156
1261
1155
470
401
571
453
241
301
764
805
783
838
931
1041
939
775
658
470
380
340
219
181
203
177
71
-104
-627
-670
-494
-234
-604
-518
-561
-790
-709
-532
-638
-750
-628
-162
-227
-655
-809
-810
-867
-963
-958
-776
-561
-146
397
150
-222
-359
-269
-449
-1520
-1608
-1213
-653
-705
-660
-471
-564
-294
-401
-486
-641
-726
-733
-608
-394
-253
-267
-274
-520
-296
-299
-681
-831
-113
-14
-386
-985
-1178
-1016
-807
-1537
-1794
-1426
-533
-772
-1019
-300
6
-805
-360
-166
-593
-627
-427
-375
-733
-722
-510
-479
-692
-732
-590
-280
-168
-227
-306
-242
-393
-487
-474
-328
-589
-714
-455
-138
-36
-336
-604
-410
-333
-432
-494
-265
-87
-208
-350
-416
-262
-465
-287
-320
-407
-565
-513
-351
-251
-129
-156
-200
-297
-230
-174
-186
-734
-847
-635
-467
-668
-697
-271
-152
-51
40
220
216
130
241
394
404
241
380
875
1561
2058
2199
2694
3056
1659
664
136
-744
-982
-1092
-1335
-1430
-1378
-1012
-875
-859
-1106
-862
-660
-765
-750
-395
-222
-118
-455
-671
-589
-103
-185
-396
-278
53
281
20
-136
-166
-307
-344
-35
-187
-209
-265
-344
-312
-293
-284
22
344
540
236
160
219
-118
-267
-86
211
-47
-203
359
636
612
84
87
328
480
242
92
385
598
660
565
719
873
848
400
1149
1273
903
748
743
665
596
679
937
917
858
851
930
958
510
306
330
899
927
408
303
538
672
244
-77
251
413
296
-37
154
354
182
-156
-435
-898
-520
-225
-206
-168
-141
-34
-77
-209
-379
-369
-383
-544
-583
-522
-340
-336
-452
-514
-680
-815
-834
-490
-481
-480
-467
-268
-93
55
23
6
59
-27
-151
-289
-203
-38
-272
-502
-408
-143
-254
-226
-280
-347
-336
-459
-493
-296
-50
97
-126
-431
-376
-75
98
-86
-349
-581
-591
-447
-474
-573
-923
-819
-504
-369
-379
-403
-112
192
220
-228
-592
-88
12
-483
-1515
-1126
-1104
-493
-418
-353
-329
-321
-322
-435
-1039
-1070
-820
-820
-1124
-1115
-238
-77
-198
-94
-65
-612
-692
-537
-453
-403
-181
-97
-189
-428
-414
-110
-350
-672
-798
-515
-249
-203
-298
-649
-893
-903
-950
-962
-1022
-896
-727
-595
-736
-901
-929
-624
-365
-331
-849
-811
-508
-338
-474
-442
-133
-31
70
-5
-88
-3
115
268
267
352
576
1050
1487
1829
2328
2686
3071
3122
2814
1150
-508
-869
-1419
-1754
-1473
-1333
-1320
-1266
-1087
-618
-1469
-1224
-1685
-1553
-657
-548
-599
-371
-292
-473
-1036
-884
-614
-778
-853
-630
-420
-562
-522
-641
-957
-1078
-907
-791
-827
-863
-983
-809
-431
-254
-471
-454
96
71
-260
-879
-815
-619
-709
-753
-536
-50
-22
27
93
-95
-370
-545
-292
-16
-282
-456
-240
481
423
305
473
201
231
508
775
573
367
210
274
398
163
-179
-383
-77
219
386
149
114
286
370
103
-181
-562
-646
-686
-1045
-1168
-963
-674
-499
-731
-1052
-834
-544
-559
-1189
-1369
-1371
-1431
-1351
-1130
-1042
-1013
-1128
-1247
-1439
-1480
-1150
-1045
-1047
-1028
-875
-705
-720
-718
-748
-759
-975
-711
-552
-550
-734
-751
-542
-754
-1099
-1325
-1099
-708
-419
-789
-908
-665
-377
-259
-569
-246
-893
11
-60
-461
-742
-500
-402
-813
-665
-281
-431
-797
-790
-314
-436
-632
-416
-275
-425
-649
-750
-442
-338
-483
-931
-727
-415
-910
-1279
-1171
-829
-549
-687
-956
-524
-664
-559
-311
-194
-214
-453
-591
-421
-369
-471
-751
-858
-771
-462
-230
-475
-756
-1019
-861
-625
-592
-653
-719
-462
155
64
-111
-216
-127
-206
-513
-981
-1114
-890
-495
-417
-585
-810
-681
-354
-29
-66
-16
161
207
-39
-122
1
252
188
-122
-463
-371
-55
208
-181
-172
-265
-119
160
-308
-583
-96
805
1365
931
86
-350
50
619
768
16
47
395
595
668
715
976
1237
1094
1186
3637
4066
3710
3519
2244
1488
1044
250
-304
-633
-744
-903
-999
-401
-43
-9
-593
-611
-394
-435
-640
-657
-467
-463
-415
-140
-4
81
-118
-194
-66
266
141
-108
-280
26
266
-106
-425
-406
-220
-118
-237
-175
367
419
285
129
214
243
-142
-55
-274
-444
-360
-34
-58
-86
-36
-25
12
64
44
-4
-179
-101
112
206
110
176
150
62
-22
284
565
526
696
1132
961
653
461
574
583
84
79
411
775
492
214
241
271
194
307
527
589
547
361
270
96
-183
-259
-27
-725
-522
-733
-1294
-1490
-701
-523
-743
-1168
-1275
-1116
-816
-733
-763
-924
-1023
-1075
-955
-761
-747
-761
-750
-563
-809
-1302
-1458
-784
-782
-1051
-746
-96
271
38
-312
-472
-353
-748
-1118
-1116
-280
48
-362
-276
-500
-775
-747
-434
23
150
18
-148
-32
6
-448
-544
-498
-767
-788
-454
-192
-608
-856
-485
-382
-824
-683
-1386
-1478
-1186
-866
-1143
-1344
-1019
-725
-538
-662
-757
-760
-704
-617
-518
-913
-1141
-1043
-741
-934
-1092
-1057
-718
-466
-379
-404
-353
-370
-616
-773
-757
-447
-848
-923
-1049
-767
-282
193
56
-11
289
382
295
-268
-412
-419
-609
-651
-520
-598
-825
-787
-48
133
70
-156
-232
-250
-177
-125
-216
-382
-777
-678
-398
-309
-101
-343
-457
13
74
-75
-107
10
330
722
795
971
1096
1268
1480
1988
3246
3489
3524
3665
3791
3738
2756
2197
1781
791
54
-656
-1444
-1521
-1608
-2059
-1921
-1373
-563
-584
-892
-1303
-649
-241
-250
-726
-406
-778
-1168
-1171
-685
-735
-903
-1165
-1150
-969
-521
-496
-592
-777
-671
-540
-852
-1034
-941
-478
-340
-242
-362
-479
-459
-401
-544
-641
-449
-647
-804
-664
-706
-743
-524
-285
-450
-592
-647
-604
-162
77
212
343
571
822
536
163
-1
132
144
100
69
249
460
383
382
631
748
369
180
843
1035
413
183
573
244
-23
241
267
37
-228
-1
110
-403
-284
171
14
-555
-746
-357
-531
-923
-1373
-1215
-901
-730
-947
-1035
-494
-294
-442
-1072
-919
-513
-313
-442
-406
-433
-1074
-623
-124
-607
-1189
-1201
-108
31
-194
-521
-291
-24
-317
-672
-835
-808
-827
-746
-112
188
237
-118
-28
179
-275
-555
-364
155
-98
-336
14
113
-132
-679
-394
-297
-286
-61
28
-112
-118
-96
56
-141
-269
-157
-23
109
-7
-234
-3
-183
-207
-90
-127
-654
-656
-338
32
112
-560
-866
-582
-331
-189
-145
-104
21
400
501
382
-236
-137
278
357
-38
-211
157
207
110
-62
47
234
296
179
106
-5
-51
-31
20
61
130
13
-148
-457
-228
-326
-224
101
155
-178
-310
-39
-16
-31
73
69
28
150
264
192
-295
-190
144
152
-126
-138
470
673
743
1036
1487
2071
2840
3098
3456
3949
4016
1611
-206
-1099
-1442
-1510
-1215
-854
-655
-565
-295
-219
-595
-932
-1082
-1071
-1075
-1109
-944
-697
-692
-876
-957
-857
-727
-539
-361
-374
-302
-39
-29
-167
-756
-809
-613
-155
-167
-477
-106
-17
-298
-379
-318
-456
-532
-383
-271
-68
339
258
69
210
500
541
-128
-84
256
171
-56
81
382
118
-27
487
627
546
355
428
541
526
763
452
876
537
297
829
874
704
780
1001
1033
634
672
860
658
346
185
319
508
622
44
-255
-191
33
-228
-474
-437
-377
-424
-609
-590
-537
-697
-812
-765
-1065
-1074
-1149
-1100
-963
-848
-582
-298
-446
-500
-130
-149
-445
-1013
-888
-670
-925
-1042
-784
-192
-365
-615
-504
-269
-220
-753
-763
-462
-88
-208
-318
-590
-759
-809
-996
-354
-641
-404
-307
-717
-1053
-1073
-1043
-1055
-807
-546
-362
-326
-243
-196
-652
-761
-622
-694
-851
-685
-240
-504
-803
-585
-374
-442
-1043
-972
-615
-338
-524
-631
-499
-385
-522
-746
-460
-326
-395
-583
-359
-139
-551
-710
-520
-401
-687
-801
-514
-591
-800
-764
-467
-228
-194
-88
51
-386
-613
-490
-386
-716
-848
-309
-202
-292
-228
-108
-199
-83
-323
82
13
-378
-306
5
208
26
-52
-117
-259
-278
-84
-163
-297
-317
-341
-466
-354
13
140
-843
-970
-441
-439
-236
-483
-665
-786
-706
-417
9
-496
-747
-605
-534
-373
79
513
227
211
810
2191
2433
2681
3511
3832
4084
3326
2471
1348
956
266
-1449
-1557
-1190
-1255
-1618
-1520
-568
-629
-1044
-1306
-1055
-992
-962
-1224
-1109
-1100
-1022
-1011
-986
-964
-856
-646
-514
-701
-853
-573
-330
-313
-847
-804
-496
-637
-504
-45
-257
-587
-744
-616
-568
-1001
-1181
-1079
-435
-355
-578
-1091
-806
-429
-77
-32
-192
-459
-353
-194
-359
-407
-132
534
455
194
68
332
561
276
169
358
635
414
171
186
317
238
167
261
683
934
1189
1055
727
589
35
417
-166
-202
70
78
64
22
-43
-116
-278
-201
47
205
-31
-233
-241
-203
-250
-484
-528
-513
-625
-623
-568
-838
-909
-687
-471
-806
-1076
-795
-545
-448
-516
-501
-344
-651
-527
-765
-823
-270
-85
-80
-375
-556
-733
-875
-714
-517
-592
-509
-157
299
249
251
84
-272
-592
-762
-793
-890
-940
-593
-106
-76
-566
-933
-726
-435
-325
561
-431
-512
-708
-1192
-957
-526
-546
-616
-216
280
-276
-729
34
377
120
-568
-191
278
-110
-460
-447
-268
-417
-519
-610
-652
-542
-175
-142
-154
33
214
308
-5
-138
-609
-54
327
454
519
282
178
258
251
-26
-182
116
138
-120
-610
-401
-184
-749
-951
-670
10
-78
-265
-480
-419
-212
-135
-330
-361
267
480
449
-63
-139
-82
992
483
545
1439
1350
1005
1385
2086
2543
2388
2436
2780
3294
3299
3202
2382
1849
1485
630
-59
-657
-1136
-1092
-973
-888
-897
-870
-863
-878
-841
-755
-674
-556
-445
-817
-514
-393
-246
-128
-90
-36
-323
-414
-213
172
-33
-235
55
154
-79
-854
-664
-222
-438
-763
-531
457
267
-133
-25
207
103
-260
124
574
109
-95
282
289
-335
160
74
284
312
638
857
736
535
272
350
461
262
296
620
952
712
612
1006
980
700
249
433
744
708
378
141
289
465
372
57
-174
-99
-330
-457
-342
-191
-429
-592
-495
-524
-625
-650
-598
-656
-808
-620
-399
-843
-1200
-1281
-1110
-1032
-900
-901
-998
-882
-325
-348
-606
-972
-794
-542
-426
-244
-739
-1166
-963
-496
-194
-424
-443
-150
272
14
-378
-641
-434
-249
-466
-419
-65
258
22
-116
-115
-327
-612
-693
-486
-325
-477
-489
-279
-85
-361
-621
-319
-12
-12
-552
25
-289
-817
-734
-315
-194
-656
-509
-120
77
28
122
-71
-352
-338
-60
-359
-308
-44
19
-451
-527
-453
-546
-494
-212
-236
-670
-848
-163
-16
-314
-256
-378
214
515
227
-223
-385
4
10
-195
-665
-687
-489
13
-8
-207
-415
-130
169
-108
-286
-219
-270
-496
-555
-340
-421
-617
-720
-393
16
-51
-262
-135
277
-65
-459
-411
-345
-423
-249
85
-46
-170
-29
124
232
205
348
756
1559
1835
2204
3083
3374
3589
3765
3628
3324
1513
917
-24
-460
-939
-1701
-1633
-1349
-1159
-1072
-800
-516
-1643
-874
-787
-1133
-910
-495
-381
-447
-309
-474
-913
-1141
-781
-661
-730
-778
-438
-7
-12
-285
-328
89
109
-123
-922
-982
-762
-916
-1385
-1590
-880
-478
-296
-254
-136
44
-553
-3
-164
-575
-400
-114
-222
-272
12
450
287
169
366
441
481
291
55
-77
263
411
280
-104
228
726
763
736
778
546
496
608
375
130
262
757
647
505
213
160
207
123
-61
-218
-289
-100
178
105
-116
-108
112
-83
-397
-646
-525
-445
-808
-867
-600
-348
-666
-866
-365
-208
-406
-871
-696
-549
-1232
-1453
-1388
-851
-761
-954
-1028
-545
-390
-480
-780
-655
-480
-656
-707
-560
-526
-666
-564
123
182
-68
-671
-527
-1161
-307
-851
-522
-148
-151
-783
-700
-446
-602
-282
-182
-105
-365
-571
-502
-500
-634
-550
-449
-648
-573
-274
-302
-635
-732
-453
-585
-813
-714
-489
-479
-924
-736
-275
-439
-1100
-1413
-759
-628
-900
-1366
-1069
-1110
-735
-465
-638
-667
-730
-818
-828
-807
-863
-977
-755
-478
-762
-1071
-1094
-706
-532
-407
-557
-630
-509
-576
-966
-1230
-910
-687
-628
-541
-248
5
-490
-841
-876
-922
-582
-1090
-925
-646
-824
-1179
-933
-976
-912
-828
-946
-1031
-1033
-938
-719
-350
-379
-488
-463
-205
53
99
440
1228
2610
2853
2944
1174
-500
-1074
-1633
-1576
-1591
-2149
-2075
-1636
-1468
-1795
-1866
-1479
-1543
-1704
-1688
-1635
-1473
-1336
-1285
-1644
-1654
-1417
-1140
-1173
-1100
-860
-890
-961
-1242
-1374
-1430
-1454
-1542
-869
-975
-1385
-1073
-708
-1348
-1702
-1483
-1118
-1639
-2050
-1349
-854
-735
-818
-396
-363
-796
-1136
-1220
-1199
-1290
-1613
-1426
-998
-683
-824
-812
-586
-658
-776
-893
-863
-990
-429
-899
-552
-524
-852
-892
-473
-571
-756
-670
-563
-583
-772
-795
-845
-1124
-1048
-854
-1152
-1413
-1320
-762
-911
-1339
-2003
-1821
-1412
-1266
-1539
-1637
-1396
-1390
-1487
-2545
-2477
-2617
-2585
-2514
-2377
-2136
-2268
-2527
-2497
-2103
-2242
-2482
-2536
-2415
-2338
-2380
-2410
-2450
-2692
-2674
-2507
-2407
-2537
-2571
-2159
-1923
-1906
-2621
-2671
-2283
-1948
-2316
-2592
-2425
-2282
-2111
-1641
-1991
-1977
-1863
-2144
-2317
-2225
-1910
-1900
-1839
-1877
-2181
-2449
-2238
-1977
-1946
-2371
-2125
-1545
-1381
-1938
-2321
-2002
-1745
-1721
-2417
-2590
-2302
-1817
-1409
-1470
-1724
-1453
-962
-772
-1690
-1811
-1568
-1620
-1464
-1469
-1635
-1962
-2125
-2178
-2074
-2005
-1843
-1727
-1672
-1668
-1663
-1275
-1127
-1095
-1482
-1655
-1638
-1492
-1461
-1413
-1514
-1467
-1074
-270
-540
-837
-1574
-906
-988
-874
-1349
-1140
-736
-639
-884
-1351
-1526
-935
-793
-968
-1482
-1405
-1202
-1541
-1505
-1114
-936
-764
-760
-780
-856
-824
-1009
-1341
-1518
-1476
-1185
-1027
-974
-231
-456
-170
-215
759
1696
2550
3188
3295
3605
4164
3997
3532
2233
1764
1437
291
-451
-910
-1093
-1251
-1495
-1677
-1521
-1399
-1719
-1813
-1633
-1063
-920
-929
-1226
-1068
-620
-704
-1469
-908
-632
-1133
-1543
-1439
-863
-926
-927
-344
-228
-376
-662
-609
-701
-1589
-1701
-1353
-853
-965
-887
-167
-8
-41
-266
-347
-460
-688
-506
-145
-137
-439
-540
-284
-253
-310
506
248
154
357
66
-143
-12
618
763
795
636
663
804
514
227
294
915
879
725
945
1104
1056
654
702
706
862
1092
1052
1061
1375
1587
1109
669
887
1193
642
705
535
368
382
614
499
320
267
330
350
384
490
499
59
118
418
152
-237
-189
572
561
475
987
1199
1053
732
891
177
-221
-236
94
157
256
777
501
527
707
1053
1032
915
674
816
1108
1114
815
691
1113
1272
1248
1015
1072
1210
1087
1010
1159
1520
1418
1211
950
1036
1190
1078
949
992
1193
1228
1286
1300
1237
1704
1193
1519
1642
1662
1415
1437
1643
1647
1478
1543
1940
1719
1257
911
1233
1530
1109
890
1057
1673
1664
1573
1514
1563
1627
1673
1778
1941
1929
1816
1801
1944
2039
2071
2024
1389
2121
2455
2165
1994
2050
1947
1695
1635
1883
1846
1814
2209
2408
2379
2121
2227
2326
1916
1869
2107
2107
1838
1792
1918
1754
1644
1792
1792
1726
1838
2010
2041
1631
1607
1321
1650
2183
2254
2031
1643
1740
1742
1030
902
1158
1520
1489
1602
1987
2026
2063
2279
2333
2366
2746
3217
3791
4601
4940
5354
5869
5876
5754
4719
3966
3354
2299
1662
1101
527
582
402
672
727
381
267
821
924
823
837
1173
1427
888
601
715
1047
822
624
933
1186
1162
966
868
483
545
909
926
487
381
1222
1389
1233
1438
965
906
1110
742
556
1183
1553
1639
1189
1172
1399
1484
1237
1081
1152
1307
1551
1984
2059
2054
1914
1925
1978
1658
1495
1637
2204
2208
2084
1906
1919
1990
1535
1840
1268
1621
2070
2283
1988
1587
1697
2030
2103
1678
1167
881
1058
1339
1032
805
821
1145
1379
1473
1400
1427
1432
1419
1268
1203
1131
1082
866
643
366
133
-170
-288
-180
115
113
-163
-450
-227
248
541
291
418
1
36
384
527
420
195
220
270
206
-81
-225
-155
138
296
351
284
340
441
640
785
968
1008
945
623
273
28
135
365
506
249
-70
-180
129
399
401
121
53
182
339
-139
-159
268
577
824
1135
893
577
485
877
1253
1206
580
-17
-205
81
306
249
-98
-233
-91
271
465
483
288
173
122
263
366
427
287
190
429
632
715
560
454
401
459
412
422
535
467
284
67
168
408
602
452
656
684
457
330
360
310
234
73
70
161
386
530
665
690
738
689
686
648
676
638
649
634
734
796
836
703
621
573
689
605
384
327
369
512
556
658
769
900
806
633
494
622
707
635
-30
335
698
366
305
599
1060
1163
954
589
403
260
184
72
132
216
354
700
1012
1351
1456
1447
1387
1461
1460
1388
1561
1910
2408
2756
3050
3645
3908
4086
4074
4035
3867
3642
3215
2761
2225
1710
1039
365
-280
-767
259
293
-61
-239
100
169
28
-68
309
659
199
-93
59
331
411
-223
96
290
179
-183
96
452
130
-53
220
770
439
3
-88
176
425
391
260
221
333
512
1055
1056
728
553
439
383
468
551
225
151
428
947
733
423
342
482
528
551
899
1274
661
211
372
1195
882
388
826
1502
1868
1489
1261
1117
654
530
851
1678
1549
1261
1027
751
581
499
591
550
399
232
415
608
530
386
284
401
457
420
180
13
-118
-212
-283
-454
-545
-589
-421
-242
-92
-166
-239
-270
-137
-73
-55
-157
-178
-247
-283
-263
-417
-360
-936
-967
-573
-730
-994
-1169
-987
-761
-599
-650
-678
-762
-852
-1025
-943
-609
-151
-277
-533
-354
68
397
249
-122
-496
-614
-681
-651
-371
-239
-184
-180
-100
-5
-201
-344
-21
17
195
-210
-398
-286
-34
-111
-325
-356
20
293
206
-280
-43
174
-176
-756
-1035
-638
-16
-418
-703
-591
-151
-28
-278
-670
-696
-459
-181
-289
-213
176
483
123
-109
-27
342
413
67
344
169
383
-32
-421
-524
-238
-23
1
-155
-103
49
189
53
-134
-260
-221
-467
-652
-565
-400
-271
-328
-253
-22
299
323
160
-27
61
174
226
166
324
608
882
824
674
570
637
496
147
-234
-228
-5
189
37
212
171
139
-15
-153
-301
-182
-140
-337
-518
-559
-303
-79
28
-19
82
181
182
-124
-400
-399
37
448
574
310
103
104
379
552
540
256
-4
-179
-73
154
470
602
697
805
1102
1280
1143
597
206
-107
2713
2799
4212
4662
4652
4328
4194
4152
3961
3173
2007
804
54
-390
-753
-1449
-2342
-3310
-2779
-1877
-1439
-1704
-1451
-26
-48
-541
-794
-392
-175
-431
-669
-609
-204
101
49
268
933
2558
3747
2827
3388
6000
6189
4639
6992
21197
22448
15960
-678
-2402
-254
-74
-2289
-3407
-1329
20
-189
-4070
-4826
-2932
7666
8546
4627
-3359
-3310
-4282
-14816
-14439
-4040
14256
10484
1850
5772
14952
-1747
-11364
-8682
-2759
512
-3130
-7339
-7445
2158
1166
-7186
-13355
-1976
10126
4394
-10896
-21942
-5536
9225
12225
-19694
-27431
-19705
1227
1834
3900
8148
-4519
-20678
-10117
5289
4895
4036
-1884
1057
-1512
-4933
-2478
18446
24305
19655
-2271
-3535
3682
16119
14038
10060
4803
2715
-671
1316
10719
22344
31946
24847
12950
-2613
-177
6824
20108
22093
20247
9203
4501
2978
9434
6868
9365
8496
8635
8637
6261
6500
5636
3647
3971
4952
5697
5542
5941
7976
8136
7589
7183
7665
6133
5615
6489
4930
5221
6042
6415
6713
5944
5197
4992
5213
