ECG_Raw
-6796
-3768
-792
-3997
-2931
-2686
-3457
-2251
-1526
-1870
-3197
485
-13
-214
-1095
-1058
-447
-458
-563
-176
153
388
495
104
-508
-1078
-860
-689
-875
-975
-1065
-960
-608
-399
-1156
-1293
-16
-561
-1463
-2439
-3016
-3831
-4520
-4475
-4819
-5934
-5752
-6093
-4107
-3353
-2570
-2002
-1613
-2065
-2044
-1521
-1222
-1813
-2020
-610
-320
-736
-1251
-918
-853
-1716
-1772
-1517
-1534
-1615
-1315
-346
579
535
654
832
-152
643
1952
1697
1765
2034
1835
1454
1544
2774
2741
2192
2220
3014
3528
3336
3655
4556
6126
6334
6536
7454
7723
7673
7015
6411
5575
3783
3061
2252
25
-903
-1353
-769
-1400
-1467
-1409
-1432
-1372
-1095
-83
229
224
-28
21
37
-451
-547
-335
-47
-309
-553
-599
-788
-1082
-990
-659
-469
-443
-283
-18
365
326
137
-84
158
470
1360
937
1546
1247
1298
1188
1115
1364
1440
1348
1237
1313
1314
1009
902
880
1137
1371
1467
1072
1069
1399
1656
1241
934
1348
1410
1138
833
940
895
498
555
967
659
649
601
370
229
254
748
372
116
547
817
24
-330
-255
-234
-767
-1256
-1173
-1047
-1158
-1204
-911
-716
-1099
-1330
-1358
-1304
-1536
-1870
-2058
-1855
-1712
-1530
-1231
-1403
-1801
-1307
-829
-831
-1332
-961
-385
-584
-1074
-1061
71
-19
-724
-1306
-762
-456
-860
-1614
-1974
-1704
-1240
-1544
-1696
-1433
-1015
-842
-959
-1072
-948
-610
-261
-87
-185
-495
-770
-733
-382
-83
-173
-472
-159
-398
-625
-130
143
87
-130
-162
106
439
509
190
-310
-655
-670
-466
-268
-216
-282
-372
-406
-334
-156
27
20
-290
-683
-767
-453
-110
-218
-753
-1201
-1117
-674
-466
-788
-1322
-1552
-911
-785
-814
-1367
-1277
-981
-812
-961
-1313
-1551
-1487
-1214
-984
-975
-1126
-1217
-1083
-797
-599
-678
-921
-1036
-884
-629
-570
-752
-893
-707
-300
-82
-276
-641
-768
-546
-272
-274
-498
-460
-182
-49
-111
-162
-78
-800
-705
-397
-915
-836
-519
-255
-138
-110
-113
-122
-124
-73
14
2
-279
-755
-1111
-1080
-759
-527
-619
-896
-1016
-843
-531
-260
-88
-36
-165
-496
-815
-473
-159
-238
-648
-894
-637
-74
346
357
100
-138
-214
-148
-454
78
131
-530
-555
-214
165
204
-118
-459
-510
-288
-81
-115
-314
-466
-506
-524
-557
-481
-209
72
26
-843
-902
-598
-361
-514
-872
-1001
-765
-440
-364
-523
-630
-556
-480
-612
-856
-918
-680
-376
-367
-683
-996
-1490
-874
-725
-946
-965
-741
-492
-450
-615
-841
-1015
-1128
-1175
-1163
-1149
-1186
-1135
-962
-820
-904
-1159
-1308
-1186
-975
-1005
-1339
-1659
-1656
-1406
-1270
-1418
-1657
-1695
-1518
-1347
-1363
-1507
-1605
-1554
-1397
-1227
-1108
-1079
-1136
-1204
-1189
-1098
-1222
-1751
-1861
-2176
-2293
-2074
-1747
-1674
-1914
-2106
-1945
-1516
-1147
-994
-863
-566
-180
76
201
447
1041
1864
2588
3026
3317
3686
4177
4599
4705
4424
3873
3205
2482
1676
749
-251
-1198
-2040
-2757
-3335
-3734
-3911
-3880
-3795
-3470
-3500
-3635
-3360
-3080
-2991
-3065
-3080
-2872
-2524
-2329
-2492
-2931
-3323
-3367
-3064
-2744
-2719
-2961
-3125
-2985
-2686
-2552
-2647
-2755
-2694
-2583
-2595
-2695
-2519
-2421
-2505
-2608
-2516
-2295
-2170
-2154
-1992
-1610
-1338
-1464
-1829
-1934
-1613
-1247
-1289
-1664
-1712
-1568
-1527
-931
-641
-1011
-1635
-1769
-1239
-633
-635
-1280
-1872
-1864
-1403
-1083
-1189
-1395
-1127
-997
-1156
-1366
-1315
-1071
-960
-1084
-1175
-952
-515
-238
-306
-527
-583
-438
-342
-496
-779
-924
-799
-535
-370
-399
-515
-575
-705
-532
-462
-559
-613
-601
-620
-703
-777
-760
-672
-623
-638
-616
-495
-410
-558
-904
-1162
-1072
-757
-619
-914
-1424
-1703
-1509
-1053
-814
-1052
-1543
-1867
-1810
-1542
-1428
-1627
-1991
-2224
-2184
-2014
-1943
-2058
-2259
-2382
-2329
-2382
-2586
-2817
-3093
-2807
-3063
-3102
-3092
-3148
-3265
-3329
-3271
-3178
-3187
-3270
-3302
-3251
-3230
-3293
-3346
-3251
-3012
-2738
-2542
-2418
-2327
-2251
-2207
-2169
-2116
-2102
-2202
-2521
-2466
-2457
-2511
-2520
-2429
-2293
-2204
-2157
-2064
-1909
-1804
-1858
-1999
-2428
-2076
-2334
-2331
-2020
-1677
-1640
-1880
-2073
-1994
-1816
-1821
-2027
-2160
-2026
-1755
-1644
-1772
-1955
-1982
-1863
-2190
-2333
-1851
-1841
-2012
-2112
-2221
-2281
-2211
-2039
-1853
-1738
-1676
-1571
-1232
-1992
-2158
-2176
-2118
-1982
-1869
-1853
-1885
-1825
-1633
-1473
-1497
-1687
-1880
-1895
-1724
-1501
-1355
-1365
-1593
-1488
-1371
-1302
-1286
-1291
-1334
-1124
-1573
-1257
-1112
-1315
-1679
-1839
-1659
-1363
-1291
-1510
-1815
-1965
-1870
-1633
-1473
-1551
-1797
-1941
-1769
-1391
-1124
-1173
-1391
-1461
-1283
-1095
-1149
-1378
-1467
-1261
-942
-820
-947
-1074
-913
-524
-257
-353
-702
-947
-909
-786
-839
-1065
-1213
-1092
-858
-957
-1512
-1037
-1013
-1094
-1111
-1002
-849
-800
-937
-1165
-1283
-1196
-1026
-1126
-1182
-954
-581
-448
-712
-1089
-1141
-823
-543
-648
-987
-1126
-880
-511
-449
-753
-1049
-1006
-705
-533
-733
-1113
-1253
-998
-611
-468
-634
-846
-868
-553
-688
-473
-473
-690
-965
-920
-723
-667
-792
-975
-1027
-901
-757
-820
-1148
-1544
-1698
-1560
-1386
-1484
-1810
-1992
-1767
-1371
-1282
-1648
-2129
-2246
-1952
-1663
-1701
-1990
-2194
-2129
-1909
-1752
-1737
-1864
-2115
-2437
-2568
-2284
-2100
-2264
-2625
-2030
-2309
-2104
-2050
-2049
-1960
-1829
-1674
-1514
-1434
-1470
-1582
-1624
-1499
-1304
-1162
-1007
-628
0
647
1066
1354
1838
2646
3480
3991
4207
4459
4939
5424
4648
4179
3727
3055
2038
808
-366
-1314
-1997
-2493
-2882
-3191
-3436
-3604
-2885
-2598
-2159
-2322
-2579
-2678
-2580
-2485
-2517
-2591
-2545
-2342
-2148
-2123
-2215
-2232
-2149
-2128
-2285
-2493
-2461
-1660
-1506
-1711
-1970
-1945
-1620
-1288
-1309
-1744
-2261
-2456
-2196
-1777
-1636
-1839
-2059
-1937
-1538
-1282
-1405
-1690
-1769
-1580
-1427
-1519
-1664
-1205
-1382
-1387
-1345
-1239
-1178
-1138
-1012
-824
-900
-854
-802
-772
-687
-568
-564
-722
-890
-876
-703
-579
-622
-702
-648
-543
-606
-877
-1076
-892
-392
2
-33
-343
-497
-225
290
-158
43
-266
-168
48
168
124
10
-76
-253
-262
-236
-253
-328
-329
-144
143
245
8
-403
-696
-758
-775
-923
-1157
-1290
-1281
-1268
-1373
-1485
-1432
-1266
-1268
-1569
-1986
-2185
-2066
-1836
-1797
-1999
-2228
-2283
-2169
-2039
-2039
-2268
-2128
-2405
-2409
-2334
-2287
-2278
-2224
-2126
-2063
-2031
-1915
-1738
-1703
-1929
-2202
-2188
-1851
-1599
-1781
-2256
-2523
-2303
-1858
-1627
-1759
-2014
-2101
-1974
-1768
-1624
-1599
-1707
-1879
-2015
-1920
-1821
-1781
-1754
-1674
-1594
-1584
-1603
-1526
-1626
-1471
-1335
-1394
-1469
-1448
-1249
-914
-634
-684
-1107
-1612
-1790
-1528
-1156
-1120
-1488
-1851
-1812
-1372
-916
-801
-1029
-1302
-1366
-1152
-1234
-1405
-1514
-1495
-1424
-1391
-1377
-1321
-1224
-1171
-1198
-1242
-1222
-1487
-1413
-844
-1095
-967
-1416
-1655
-1445
-1015
-786
-869
-1050
-1075
-938
-861
-979
-1230
-1470
-1617
-1664
-1441
-1288
-1294
-1425
-1499
-1410
-1277
-1303
-1472
-1549
-1411
-1213
-1178
-1236
-1128
-814
-615
-776
-1096
-1188
-1016
-950
-1212
-1526
-1521
-1253
-563
-1186
-517
-338
-556
-852
-884
-760
-775
-1048
-839
-774
-926
-1105
-1096
-930
-838
-974
-1250
-1422
-1397
-1316
-1360
-1468
-1417
-1159
-950
-1049
-1357
-1485
-1183
-669
-389
-528
-844
-983
-847
-638
-623
-850
-1152
-1358
-1387
-1328
-385
-605
-855
-1083
-1129
-1070
-1061
-1064
-902
-589
-441
-697
-1153
-1323
-999
-586
-618
-1126
-1565
-1465
-956
-587
-677
-996
-1112
-926
-725
-772
-972
-1059
-952
-811
-815
-937
-1000
-922
-772
-673
-634
-590
-551
-572
-664
-757
-778
-892
-864
-980
-661
-413
-534
-901
-1105
-943
-646
-580
-767
-921
-864
-731
-748
-899
-961
-839
-729
-850
-1122
-1211
-939
-525
-359
-609
-1012
-1181
-790
-798
-1020
-1177
-1087
-895
-886
-1057
-1056
-645
-54
230
25
-344
-452
-250
-69
-186
-402
-283
-212
-25
-235
-615
-827
-632
-220
-59
-356
-778
-794
-337
137
159
-310
-891
-1180
-1011
-885
-884
-974
-1037
-973
-795
-651
-676
-807
-868
-819
-811
-961
-1184
-1260
-1126
-990
-1053
-1269
-1392
-1280
-1088
-1020
-1097
-1158
-1271
-1139
-1231
-1212
-1126
-980
-806
3848
6633
4392
2681
1481
420
-305
-786
-1231
-1656
-1947
-2064
-2170
-2336
-2417
-2248
-1680
-1256
-1529
-1579
-1539
-1467
-1416
-1414
-1402
-1330
-1235
-1175
-1136
-1090
-1040
-1032
-1088
-1163
-1183
-1171
-1242
-1365
-1147
-853
-742
-897
-1120
-1154
-985
-819
-824
-931
-983
-923
-817
-730
-629
-452
-240
-130
-190
-374
-589
-752
-1032
-327
67
52
210
503
626
431
157
135
318
315
-96
-773
-423
25
102
-220
-504
-371
99
474
450
154
-4
188
533
671
488
191
61
153
292
357
394
466
555
600
648
812
1035
1137
1038
917
1003
1238
1324
1367
1029
1043
818
244
173
426
791
919
734
477
418
607
855
988
946
754
455
164
21
109
296
295
-20
-477
-731
-639
-413
-417
-777
-1223
-1399
-1223
-973
-996
-1296
-1569
-1556
-1371
-1334
-1570
-1872
-1939
-1694
-1935
-1813
-1668
-1703
-1891
-2025
-1942
-1646
-1330
-1186
-1505
-844
-1366
-1635
-1520
-1197
-1113
-1454
-1876
-1886
-1415
-923
-892
-1296
-1615
-1469
-982
-642
-773
-1188
-1452
-1029
-802
-781
-832
-800
-696
-667
-798
-994
-1093
-804
-534
-390
-343
-437
-578
-612
-519
-439
-521
-725
-863
-791
-584
-448
-471
-525
-416
-334
-350
-378
-338
-247
-231
-334
-449
-488
-428
-464
-539
-625
-705
-761
-764
-700
-601
-558
-599
-685
-728
-688
-625
-688
-653
-349
-300
-483
-722
-688
-315
32
-45
-473
-741
-525
-85
2
-439
-945
-986
-603
-331
-510
-468
16
43
-433
-971
-1116
-816
-443
-405
-755
-1147
-1179
-783
-305
-165
-435
-781
-823
-556
-346
-462
-766
-903
-748
-553
-569
-799
-678
-743
-693
-493
-342
-403
-605
-734
-695
-589
-532
-546
-642
-813
-921
-783
-429
-155
-230
-572
-808
-685
-320
-68
-156
-456
-672
-644
-487
-438
-569
-682
-571
-303
-207
-457
-817
-858
-469
-72
-165
-717
-749
-410
-405
-561
-498
-566
-795
-708
-430
-306
-439
-575
-434
-161
-177
-591
-982
-900
-435
-132
-313
-713
-845
-614
-339
-300
-406
-452
-436
-479
-572
-531
-323
-203
-364
-635
-674
-429
-227
-358
-703
-871
-694
-359
-547
-95
-495
-527
-560
-637
-678
-543
-259
-60
-176
-526
-748
-603
-267
-202
-578
-1034
-1038
-522
26
79
-352
-738
-636
-197
42
-233
-788
-1104
-942
-553
-309
-298
-167
-232
-348
-322
-200
-250
-583
-925
-909
-538
-37
-270
-332
-228
-318
-524
-592
-421
-183
-78
-74
-13
161
333
410
395
298
97
-164
-288
-141
84
23
-390
-752
-605
-22
397
206
-656
-455
-94
-26
-286
-535
-523
-341
-208
-198
-253
-387
-684
-1045
-1193
-996
-683
-639
-125
-1077
-1084
-839
-995
-1172
-1159
-923
-648
-529
-559
-616
-544
-334
-167
-229
-514
-805
-768
-653
-730
-941
-1063
-940
-602
-223
67
314
632
1076
1561
1957
2179
2360
2734
3385
4175
4832
5266
5624
6083
6586
6911
6833
6324
1196
-758
-1824
-1873
-2129
-2368
-2271
-1850
-1442
-1605
-1598
-1009
-1087
-1565
-2222
-2001
-1716
-1815
-1967
-1873
-1171
-1051
-1210
-1539
-1482
-1482
-1748
-1639
-1337
-1110
-1230
-1238
-1003
-995
-997
-979
-1208
-911
-955
-779
-998
-1038
-687
-710
-835
-617
-480
-606
-839
-460
-7
-206
-527
-508
-223
-36
-140
-376
-350
-241
-239
-178
-15
49
-16
-75
-10
26
131
-269
-68
144
605
-41
399
790
517
452
1124
1200
992
1041
1083
928
718
671
793
893
626
273
283
567
634
124
183
533
549
142
-10
456
353
-45
-358
-185
-174
-792
-979
-1329
-1157
-1538
-1776
-1835
-1558
-1511
-1572
-1603
-1556
-1608
-1767
-1976
-1985
-2148
-2064
-1729
-1060
-1106
-1256
-1240
-1267
-1485
-1801
-2046
-2149
-2170
-2042
-1773
-1398
-919
-973
-1112
-1195
-1114
-1054
-584
-1087
-1325
-832
-947
-1486
-1643
-1303
-921
-894
-1126
-955
-673
-666
-905
-628
-253
-162
-473
-900
-1067
-673
-704
-1016
-1294
-1240
-841
-419
-464
-676
-751
-819
-956
-1032
-942
-923
-875
-517
-520
-452
-449
-864
-1315
-1396
-893
-1005
-775
-1509
-468
-1165
-861
-813
-1012
-1048
-1107
-844
-705
-748
-918
-843
-839
-958
-889
-567
-346
-766
-1023
-1003
-666
-803
-1074
-1155
-1018
-970
-1004
-939
-956
-1128
-1304
-1226
-860
-511
-823
-1055
-522
-318
-553
-1068
-1409
-1303
-910
-778
-1067
-562
-671
-1083
-1316
-1295
-1088
-1077
-1047
-997
-1002
-934
-827
-796
-890
-959
-779
-838
-1074
-1153
-935
-847
-1064
-1038
-934
-863
-775
-779
-947
-1117
-1076
-628
-724
-1035
-1132
-812
-555
-944
-1136
-807
-859
-986
-662
-179
-78
-578
-991
-811
-732
-984
-1349
-1439
-1175
-861
-780
-884
-905
-749
-764
-1052
-1180
-454
-700
-785
-1192
-1309
-954
-855
-174
-132
-310
-429
-311
-6
228
189
-202
-167
-75
-231
-307
-241
-321
-613
-784
-405
-321
-574
-1006
-773
-552
-670
-1064
-1345
-1265
-1046
-1057
-1338
-1549
-1056
-913
-1112
-1340
-1277
-1039
-954
-1086
-1379
-400
-378
-719
-1033
-1055
-878
-703
-554
-373
-245
-394
-789
-1059
-897
-477
-330
-690
-1171
-1203
-698
-103
179
270
606
1326
2112
2643
2971
3436
4207
5074
5711
6057
6293
6523
6366
5828
5241
4111
3122
1832
23
-229
-2533
-1857
-1201
-1284
-1532
-1431
-1307
-2535
-1933
-1928
-1773
-1705
-1730
-2140
-2276
-2149
-1601
-1583
-1610
-1054
-846
-974
-1318
-1207
-1151
-1493
-1494
-1325
-1312
-1421
-1328
-1084
-623
-873
-1184
-730
-341
-363
-787
-525
-240
-863
-1109
-749
91
-254
-639
-56
251
104
-271
-115
-90
-329
-407
10
161
-138
-265
180
402
523
571
428
226
422
759
446
1268
928
833
771
698
582
445
546
795
995
1002
854
643
411
487
542
179
54
192
618
470
156
-222
-252
-278
-625
-772
-954
-971
-997
-1345
-1589
-1683
-1476
-1578
-1846
-1670
-1759
-1971
-1989
-1688
-1756
-1873
-1724
-1672
-1752
-1691
-1521
-1517
-1840
-1771
-1605
-1737
-1898
-1842
-1356
-1374
-1570
-1562
-1349
-1333
-1849
-1860
-1605
-1336
-1446
-1460
-1261
-1287
-1321
-705
-1258
-1331
-1074
-670
-802
-979
-905
-692
-544
-843
-1121
-1250
-927
-797
-870
-1157
-944
-521
-349
-754
-1073
-869
-786
-899
-1085
-1092
-1136
-1061
-922
-951
-1444
-1407
-1158
-745
-1251
-901
-819
-1095
-910
-580
-933
-1399
-1414
-688
-967
-1594
-1447
-736
-465
-1359
-1364
-846
-418
-914
-1353
-1083
-830
-813
-1141
-1166
-997
-449
-499
-865
-1285
-949
-609
-825
-951
-966
-1009
-1116
-707
-419
-823
-934
-696
-316
-553
-785
-585
-480
-561
-814
-849
-852
-745
-639
-542
-412
-392
-425
-499
-556
-739
-668
-266
-520
-760
-560
-65
-473
-886
-701
-222
-907
-744
-456
-573
-643
-421
-325
-248
-128
-252
-486
-631
-520
-478
-648
-654
-571
-529
-563
-550
-521
-590
-629
-485
-461
-506
-412
-292
-327
-681
-662
-535
-681
-838
-402
-380
-554
-678
-658
-522
-395
-384
-462
-529
-520
-555
-579
-451
-294
-130
-52
24
-165
-378
-479
-468
-657
-956
-979
-661
-452
-604
-551
-285
28
-91
-230
-427
-599
-766
-309
-373
-458
-427
-677
-772
-721
-452
-332
-218
-314
-549
-716
-665
-466
-332
-375
-476
-442
-259
-129
-210
-407
-531
-494
-451
-590
-850
-896
-535
424
55
-87
-540
-717
-920
-1084
-1039
-304
63
-179
-467
-850
-1135
-1162
-1050
-1103
-1475
-1931
-2043
-1701
-1260
-1118
-1333
-1563
-1447
-1048
-747
-843
-1230
-1504
-1426
-1144
-971
-1070
-1276
-1334
-1069
-1091
-1242
-1366
-1390
-1346
-1322
-1333
-1365
-1402
-1396
-1305
-1144
-1040
-1111
-426
108
1576
2040
2299
2668
3328
4096
4666
4993
5281
5692
6095
6202
5910
5387
4849
3487
2322
996
-760
-1152
-1617
-2887
-3160
-3012
-2500
-2425
-2359
-2110
-2152
-2267
-2007
-1865
-2172
-3396
-3229
-2489
-1986
-2545
-1680
-2243
-2102
-2101
-2184
-2065
-1725
-1504
-1876
-1825
-1394
-1157
-1670
-1960
-1443
-1115
-678
-878
-1110
-959
-600
-497
-704
-760
-581
-688
-878
-758
-577
-560
-670
-450
-100
19
-318
-600
-331
-115
-192
-691
-504
-22
366
122
39
804
975
724
211
297
234
-1015
-629
-953
-965
-1162
-1856
-1907
-1831
-1947
-1915
-1648
-1463
-1900
-2348
-2198
-2015
-2207
-2903
-2732
-2305
-2054
-2279
-2395
-2281
-2434
-2715
-2570
-2243
-2221
-2871
-2754
-2289
-2259
-2856
-3223
-2267
-2264
-2136
-1948
-2172
-2429
-2456
-2064
-2056
-2160
-2047
-1843
-1693
-1644
-1599
-1475
-1342
-1591
-1943
-2013
-1816
-1826
-2175
-1982
-1634
-1601
-1776
-1812
-1759
-1778
-1677
-1428
-1530
-1566
-1131
-1086
-1264
-1800
-1160
-1024
-909
-912
-968
-1059
-1674
-1894
-1749
-1209
-1424
-1758
-1497
-1222
-1269
-1589
-1370
-1113
-1335
-1448
-1293
-1027
-1295
-1602
-1407
-1201
-1287
-1591
-1273
-863
-1238
-1181
-1015
-1312
-985
-894
-1338
-1606
-1557
-1118
-1140
-1247
-1153
-1026
-962
-1064
-1201
-1308
-1152
-1110
-1270
-1387
-1050
-798
-1164
-1197
-944
-1047
-1398
-1380
-857
-1120
-1458
-745
-353
-543
-1352
-1232
-1082
-932
-1196
-578
-893
-1825
-1622
-1172
-1130
-1425
-1498
-987
-797
-797
-937
-1095
-1152
-1054
-687
-668
-780
-1013
-1042
-1046
-1031
-1071
-1155
-1123
-955
-826
-1011
-1193
-1300
-1290
-1299
-1384
-1650
-1595
-847
-557
-1055
-1352
-869
-1040
-1144
-1052
-958
-1131
-1240
-1015
-925
-877
-791
-683
-657
-746
-779
-689
-783
-1393
-1361
-1021
-850
-1180
-1315
-672
-550
-713
-676
-427
-440
-544
-610
-434
-598
-856
-901
-925
-1124
-1357
-1493
-1120
-974
-1003
-862
-626
-549
-645
-701
-626
-549
-827
-848
-647
-416
-359
-452
-552
-583
-542
-456
-309
-319
-279
-62
-147
-331
-380
-250
-152
-232
-660
-497
-748
-978
-937
-695
-556
-665
-853
-879
-755
-721
-880
-1044
-1027
-891
-857
-997
-1119
-1001
-695
-478
-565
-924
-1309
-1496
-1419
-1218
-1538
-1722
-1644
-1341
-1030
-894
-970
-1119
-1151
-999
-778
-680
-781
-927
-679
-162
-186
-99
313
858
1260
1471
1754
2331
3150
3988
4736
5426
6089
6581
6683
6112
5916
5727
5183
4151
2001
1037
325
-687
-2325
-2571
-2579
-2512
-2525
-2505
-1948
-1396
-981
-989
-1363
-1741
-1798
-1565
-1781
-1464
-1214
-1442
-1273
-1126
-1243
-1478
-1487
-1230
-1103
-1373
-1724
-1592
-941
-433
-660
-1427
-1608
-909
-565
-1271
-1264
-822
-448
-508
-848
-1093
-1145
-1307
-1450
-1370
-1102
-887
-863
-762
-554
-451
-515
-609
-638
-641
-337
84
-403
-290
583
396
-204
-414
7
143
-316
-166
297
920
982
987
777
544
352
300
401
537
671
669
763
1146
1118
865
506
628
813
930
957
1021
1063
1022
866
1096
864
716
686
670
533
330
-78
-293
-517
-837
-828
-741
-782
-837
-764
-787
-935
-1395
-1645
-1801
-1648
-1627
-1794
-1964
-1867
-1498
-1200
-1607
-1786
-1638
-1527
-1891
-2145
-1916
-1539
-1473
-1213
-1301
-1480
-1406
-1115
-1416
-1791
-1517
-1165
-1124
-1247
-953
-870
-995
-1066
-1127
-1126
-1033
-941
-980
-1129
-1207
-961
-954
-1087
-1117
-1041
-1074
-979
-683
-532
-978
-993
-613
-411
-156
-533
-1124
-862
-252
-184
-1167
-987
-420
-303
-656
-714
-385
-524
-719
-678
-638
-665
-495
-382
-422
-669
-631
-491
-331
-446
-631
-510
-151
72
-354
-507
-373
-544
-926
-276
-247
-816
-754
-535
-587
-664
-526
-278
-496
-689
-288
-105
-265
-755
-533
-192
-295
-468
-237
-391
100
-530
-256
-5
-597
-837
-694
-455
-696
-472
-291
-159
-40
18
-157
-151
-44
-155
-329
-326
-16
-118
-333
-167
67
75
-331
-358
-269
-243
-336
-705
-708
-484
-83
-201
-324
32
209
103
-335
-251
-100
-255
-641
188
184
-312
-111
176
-181
-438
-407
-377
-604
-639
-168
-287
-586
-308
103
170
-281
-186
48
23
-95
309
-228
-233
152
310
69
-109
-84
-162
-293
-307
-188
-121
-219
-298
-81
56
-318
-373
-181
8
-82
-337
-211
-387
-421
-290
-20
196
151
-115
-328
-237
105
406
425
199
-7
550
617
463
213
9
-107
-167
-160
-76
27
20
-145
-249
-23
499
926
908
545
293
395
618
535
117
-245
-250
-66
-25
-180
-275
-169
255
-9
24
223
126
-230
-474
-400
-229
-917
-792
-430
-243
-410
-705
-741
-469
-223
-319
-677
-942
-893
-640
-477
-556
-754
-846
-744
-551
-398
-330
-318
-323
-354
-385
-342
-218
-69
-42
-199
-394
-364
-6
529
952
3666
6087
6708
6919
7138
6832
6167
5352
3508
2480
1515
707
9
-681
-1269
-1674
-1659
-1715
-1763
-1636
-1373
-1246
-1614
-1595
-1298
-1132
-1381
-1486
-1161
-1212
-1433
-1458
-1263
-1202
-1324
-1190
-1005
-775
-795
-392
-405
-553
-520
-516
-601
-518
-395
-477
-579
-593
-532
-583
-659
-910
-1047
-1006
-373
-300
-489
-410
10
254
149
-105
-216
-166
-218
-215
-42
140
144
55
140
500
170
298
814
948
909
827
667
457
360
484
685
696
432
738
1170
792
377
494
1051
1468
1412
1108
1032
1141
1184
1238
1073
788
1153
1686
1788
876
903
1317
1275
864
723
119
-143
-300
-247
-276
-634
-644
-624
-1335
-1674
-1550
-1188
-1092
-1418
-1751
-1308
-1198
-1577
-2143
-1836
-1580
-1804
-1790
-1572
-1355
-1320
-1161
-1195
-1513
-1673
-1335
-1362
-1566
-1392
-1192
-1547
-1646
-1053
-1535
-1235
-699
-716
-1085
-1116
-495
-576
-896
-972
-719
-592
-783
-836
-796
-705
-689
-679
-578
-507
-479
-567
-571
-564
-642
-826
-982
-969
-804
-670
-712
-837
-427
-501
-509
-508
-607
-627
-487
-319
-342
-620
-985
-800
-628
-952
-1056
-829
-284
-469
-784
-910
-796
-683
-752
-928
-772
-654
-791
-606
-207
-114
-388
-369
162
-57
-489
-509
-334
-570
-356
-501
-87
-574
-966
-339
-140
-425
-711
-300
-47
-546
-510
-129
-147
-643
-826
-3
145
-65
-73
246
332
-335
-488
-424
-399
-589
-878
-965
-419
-275
-382
-508
-482
-341
-355
-284
-432
-564
-464
-466
-863
-847
-623
-475
-566
-453
116
52
-138
75
177
-62
-600
-475
-399
-591
-844
-794
-390
-50
-290
-293
428
300
-290
-802
-389
-406
66
-145
-322
-460
-54
-133
-586
-404
40
228
-208
-521
-264
-252
-517
-640
-273
-37
-147
-383
-339
104
588
65
-575
-562
-213
-227
-933
-791
-254
401
303
271
56
-190
-373
-162
126
171
234
166
-8
-116
-119
-193
-332
-362
-228
-50
240
184
12
-123
-135
-348
-699
-834
-552
-107
-107
-203
144
734
997
688
168
-81
30
178
133
-20
-73
-13
29
44
471
503
396
300
320
340
161
-503
-384
87
491
498
277
317
791
1315
1340
794
184
34
317
566
439
68
-173
-110
76
116
-39
-259
-410
-498
-562
-562
-424
-198
-97
-215
-397
-414
-254
-121
-459
-137
-219
-565
-499
-388
-423
-654
-913
-956
-725
-414
-272
-358
-485
-422
-122
267
579
735
745
761
961
1444
2111
2705
3027
3189
3514
4227
5156
5913
6254
6280
6322
6581
6892
6881
4230
3428
2199
1306
-1114
-1820
-1165
-788
-693
-1144
-1224
-1078
-856
-749
-845
-1031
-1087
-932
-823
-808
-830
-915
-1258
-1195
-942
-783
-903
-802
-479
-287
-480
-831
-662
-463
-605
-866
-375
4
-420
-595
-401
-396
-441
-196
-121
-286
-207
-111
-217
-491
-581
-278
381
153
933
489
819
596
388
412
495
329
248
535
555
444
427
618
904
1055
948
970
1037
805
1436
1127
369
524
500
-371
-236
32
21
-285
-588
-669
-724
-997
-1207
-1133
-866
-728
-926
-1429
-1179
-803
-1021
-1426
-1615
-1558
-1444
-1410
-1432
-1391
-1591
-1668
-1907
-1846
-1440
-1129
-1543
-1519
-1332
-1166
-1163
-1324
-1603
-1522
-1373
-1242
-1263
-1278
-1241
-1160
-1054
-961
-996
-973
-902
-915
-1069
-1197
-727
-496
-661
-1285
-1000
-518
-391
-825
-1466
-937
-1000
-716
-555
-620
-1183
-1248
-1129
-1030
-1074
-1042
-987
-1087
-1107
-924
-629
-483
-605
-866
-643
-384
-612
-888
-971
-888
-835
-910
-1017
-994
-971
-1050
-1171
-1090
-981
-923
-1016
-1155
-1424
-770
-984
-651
-713
-829
-665
-656
-846
-1005
-899
-638
-548
-1075
-1181
-1029
-725
-846
-1038
-1149
-1132
-1036
-974
-1052
-1047
-996
-1032
-1247
-1485
-1503
-949
-860
-1009
-1052
-780
-540
-640
-858
-881
-810
-985
-1153
-855
-715
-874
-1103
-635
-126
-716
-1383
-1558
-944
-1134
-1674
-1737
-1266
-1110
-1776
-1707
-1238
-947
-1412
-1782
-1310
-990
-1028
-1407
-1221
-890
-757
-759
-574
-690
-743
-361
-800
-1439
-1526
-1061
-1383
-1769
-1295
-1045
-1244
-1459
-966
-672
-1532
-1674
-1249
-1070
-1720
-2068
-1090
-839
-1128
-1468
-1099
-783
-1018
-1176
-1199
-1276
-1339
-1284
-1120
-1233
-1348
-1766
-1184
-1073
-1031
-860
-903
-1121
-1178
-941
-1055
-1246
-1157
-1020
-1032
-1226
-1289
-1338
-1145
-975
-972
-1302
-1195
-966
-1195
-1570
-1738
-1423
-1313
-1294
-1200
-1179
-1180
-962
-886
-1027
-1483
-1416
-1451
-1529
-870
-630
-777
-1022
-943
-541
-281
-522
-1068
-1362
-1184
-862
-818
-1033
-1146
-987
-754
-713
-828
-843
-664
-470
-476
-656
-811
-813
-711
-650
-719
-860
-948
-351
-315
-469
-563
-410
-160
-188
-656
-1242
-1457
-1306
-616
-906
-1163
-1277
-1272
-1270
-1337
-1398
-1338
-1211
-1195
-1428
-1738
-1743
-1290
-777
-788
-1411
-2018
-1400
-1848
-1390
-1601
-1687
-714
-728
-1432
-2013
-1725
-804
-180
-385
-983
-1190
-763
-136
214
256
296
582
1109
3861
5878
6039
5885
5574
4449
3581
2511
1344
235
-683
-1422
-2028
-2483
-2720
-2722
-2368
-2224
-2136
-1848
-1744
-1597
-1636
-1745
-1868
-1841
-1891
-2299
-2321
-2141
-2030
-2214
-2228
-1732
-1882
-2360
-2326
-1045
-1616
-2135
-1496
-1121
-1268
-1808
-1513
-1013
-597
-742
-932
-864
-662
-639
-1181
-1222
-1036
-1226
-1579
-1587
-817
-804
-1067
-863
-341
-39
-163
-530
-780
-726
-433
-684
-1017
-1021
-613
-166
450
-258
273
363
142
-191
73
476
749
742
564
505
1230
1465
1198
306
456
839
764
482
500
860
677
458
735
850
704
574
843
1056
776
529
360
268
308
332
-342
-40
-638
-894
-410
-242
-428
-761
-932
-904
-903
-1401
-1553
-1548
-1826
-2116
-2190
-1703
-1666
-1892
-2202
-2078
-1961
-2110
-2260
-2331
-2097
-1955
-1912
-1841
-1726
-1686
-1890
-1827
-1639
-1871
-2077
-1652
-703
-1664
-1741
-1565
-1683
-1857
-1784
-1351
-1379
-1457
-1029
-788
-855
-1471
-1472
-1252
-1023
-1087
-1141
-1218
-1253
-1234
-1108
-1169
-1263
-1065
-820
-664
-753
-891
-1017
-1101
-1045
-1001
-440
-1233
-983
-655
-898
-1159
-1123
-493
-404
-558
-959
-1010
-967
-902
-901
-862
-626
-602
-509
-504
-599
-906
-949
-944
-974
-956
-901
-857
-870
-827
-685
-719
-772
-906
-1026
-509
-303
-555
-888
-926
-399
-285
-342
-676
-759
-687
-430
-591
-917
-1186
-1027
-876
-990
-923
-531
-352
-266
-354
-464
-562
-662
-728
-834
-1057
-1071
-990
-682
-631
-708
-680
-528
-611
-688
-742
-600
-365
-393
-711
-865
-496
-511
-769
-1021
-937
-921
-887
-783
-803
-337
-410
-675
-831
-514
-753
-1087
-594
-303
-523
-1018
-606
-213
-609
-834
-735
-549
-708
-568
-846
-349
-966
-998
-748
-712
-1145
-1472
-1441
-1156
-911
-843
-827
-726
-568
-447
-435
-465
-491
-495
-511
-581
-672
-694
-589
-469
-883
-1268
-1401
-1168
-809
-709
-971
-1269
-1155
-545
101
-372
-1265
-1271
-754
-429
-383
-392
-277
-138
-156
-320
-463
-501
-532
-685
-901
-988
-349
-344
-474
-594
-634
-677
-799
-974
-1089
-1098
-1082
-1143
-1278
-1395
-1443
-1447
-1422
-1348
-1230
-1135
-1164
-1293
-1388
-1345
-1249
-1294
-1555
-1881
-2045
-1068
-1049
-1161
-1299
-1314
-1400
-1531
-1364
-1091
-910
-903
-936
-892
-803
-816
-951
-1101
-1122
-945
-579
-64
444
770
900
1102
1702
2682
3632
4148
4264
4387
4818
5435
5850
5864
5571
5160
4727
4228
3611
2893
1159
231
-573
-2843
-2254
-2431
-2083
-1672
-1876
-2041
-2005
-2134
-2310
-1898
-1606
-1710
-2414
-2252
-1840
-1853
-2173
-2177
-1558
-1670
-2090
-2303
-2034
-1906
-2143
-2017
-1670
-1137
-1116
-1203
-1447
-1410
-1249
-1303
-1526
-1151
-1183
-1308
-1064
-919
-1005
-1149
-1139
-975
-773
-859
-1000
-1145
-1208
-1130
-960
-837
-844
-871
-760
-383
-429
-555
-509
-483
-539
-264
6
56
-241
-16
348
-579
-701
-286
261
489
407
618
405
525
661
838
984
1125
926
766
815
1000
1068
927
759
945
1055
973
578
450
379
300
303
322
196
57
18
163
342
234
-283
-1094
-796
-453
-1471
-1466
-1145
-887
-878
-1557
-1687
-1463
-1318
-1394
-1632
-1485
-1339
-1625
-1803
-1788
-1476
-1445
-1492
-1477
-1467
-1484
-1356
-1293
-1366
-1431
-1138
-841
-983
-1134
-1069
-911
-1073
-1213
-1103
-1170
-1155
-993
-807
-797
-541
-955
-269
-413
-917
-777
-557
-443
-344
-173
-240
-425
-455
-341
-502
-670
-618
-358
-99
-27
-81
13
78
-309
-583
-704
-473
-343
-267
-134
-66
-15
51
31
-74
-209
-44
-162
-514
91
172
-60
90
398
316
-122
-372
-148
193
-255
-494
-265
98
-218
-344
298
156
-381
-272
427
644
-622
-803
-279
360
476
36
-447
-159
205
249
-265
-316
-188
-183
26
-166
-428
-343
-94
-37
-356
-249
77
375
416
182
-259
-167
-698
62
-11
-314
-357
-141
-43
-266
-462
-680
-604
-113
383
161
-210
-156
752
617
28
-67
235
218
107
-12
-66
249
221
-110
-632
-356
7
-257
-585
-525
352
415
143
-102
73
163
100
47
121
261
322
342
434
352
57
-217
-292
-182
-66
-87
-320
134
-270
157
-62
-131
140
361
365
-280
-381
-121
540
440
181
260
551
621
-85
-268
-79
261
27
-200
27
185
175
29
38
69
216
264
197
-120
-137
-101
176
269
392
478
369
97
-23
223
730
343
-156
271
782
794
335
-65
-24
323
539
436
231
186
278
316
255
245
348
418
325
205
301
564
620
282
-173
-265
87
463
471
156
-78
65
690
1189
1208
662
345
1002
1201
966
603
495
717
1022
1111
908
591
453
596
831
831
516
127
-17
109
234
182
50
18
82
88
25
55
198
262
89
-186
-216
79
377
323
-44
-334
-249
99
390
302
141
384
-487
-344
520
514
216
31
206
566
748
627
432
502
928
1519
2016
2351
2739
3389
4285
5171
5729
5945
6150
6657
7366
7806
7377
6944
6287
5574
4527
3429
2454
1561
-599
-271
-80
-440
-373
-498
-648
-654
-521
-427
-581
-521
-251
38
106
-72
-274
-53
61
-129
-462
-573
-306
114
236
-15
-116
346
123
556
565
629
833
763
754
1102
1038
742
1111
1243
863
995
1297
1217
1071
1243
1713
1514
1283
1621
1823
1753
1398
1424
1543
1681
1790
1819
1767
1880
2125
2268
1977
1976
1335
1609
1659
2105
2300
2091
1716
1479
1451
1295
1053
941
1138
1045
748
508
683
708
-28
-308
-329
-242
-221
-282
-335
-468
-643
-772
-710
-755
-953
-1177
-990
-777
-901
-1072
-1080
-1213
-964
-990
-849
-964
-1089
-1069
-836
-800
-813
-860
-751
-713
-931
-1185
-1205
-998
-777
-574
-619
-656
-335
-178
-184
-293
-387
-471
-345
-695
-608
-522
-731
-735
201
-879
-903
-460
-53
-529
-1011
-994
-419
231
361
-542
-494
1
-579
-996
-893
-569
-483
-689
-515
-50
154
-400
-427
-95
242
228
-85
-305
266
539
439
122
-123
-227
-307
-553
-72
18
-138
-80
4
-66
-551
-638
-479
-97
-247
-534
-468
-162
-57
-462
-529
-474
-476
-581
-630
-488
-274
-449
-558
-113
-67
-330
-589
-273
-9
-217
-272
-115
171
118
-347
-650
-382
-80
23
-202
-308
-426
-607
-485
-342
-419
-706
-902
-749
-194
-453
-405
-273
-369
-721
-618
-474
-505
-664
-679
-400
344
252
-165
-670
-385
16
-67
-381
-404
-42
-583
-612
-560
-669
-631
-424
52
18
-195
-444
-313
-196
-338
-362
-222
-226
-562
-787
-419
-305
-461
-588
-365
-205
-180
-56
74
-137
-202
-47
91
-177
-393
-180
-179
-519
-744
123
-179
-712
-542
-214
-295
-729
-539
-385
-732
-677
-389
-558
-940
-983
-205
-71
-215
-503
-490
-426
-301
-456
-745
-724
-330
-128
-725
-866
-673
-629
-955
-1035
-403
-856
-1180
-662
-868
-1354
-1406
-983
-477
-222
-237
-380
-564
-707
-712
-562
-420
-503
-764
-625
-447
-486
-635
-707
-673
-620
-600
-602
-598
-593
-618
-668
-714
-738
-744
-726
-691
-645
-599
-574
-551
-489
-351
-151
-466
-431
-386
-99
-39
-324
-727
-926
-846
-665
-591
-645
-669
-288
-141
-256
-610
-993
-1149
-1043
-910
-975
-1217
-1350
-1167
-791
-530
-526
-667
-782
-862
-996
-1174
-1315
-1351
-1339
-1349
-1353
-1252
-1048
-817
-641
-580
-640
-925
-1140
-930
-1082
-337
-23
63
187
579
1107
1499
1736
2104
2784
3647
4422
5001
5480
5887
6171
6289
6280
6097
5612
4801
3862
3049
2379
1638
696
-281
-1024
-1502
-1891
-2275
-2530
-2546
-2423
-2338
-2165
-1865
-1591
-1745
-1857
-2115
-1460
-1359
-1368
-1380
-1277
-1306
-1517
-1834
-2013
-1933
-1703
-1606
-1682
-1590
-1098
-1099
-1305
-1519
-1574
-1511
-1477
-1660
-1660
-1500
-1275
-1165
-1263
-1466
-1522
-981
-804
-1022
-919
-561
-211
-143
-349
-577
-996
-673
-674
-703
-631
-479
-342
-343
-663
-144
-105
32
170
169
67
28
92
148
37
84
233
305
324
492
719
786
681
616
871
866
689
519
650
771
632
489
852
777
529
304
289
435
553
545
455
177
44
38
201
341
203
-220
-719
-514
-379
-981
-1238
-1163
-825
-978
-1244
-1351
-1186
-914
-820
-1595
-1952
-1913
-1557
-1902
-2406
-2575
-2219
-1687
-1483
-1858
-2028
-1896
-2028
-1777
-1450
-1385
-1696
-2082
-2153
-1893
-1651
-1753
-2097
-2284
-1659
-1384
-1385
-1504
-1537
-1440
-1322
-1301
-1394
-1557
-1704
-680
-892
-930
-526
-951
-1026
-795
-594
-963
-1202
-975
-466
-147
-268
-682
-502
-309
-391
-747
-1120
-1278
-995
-824
-309
-509
-807
-382
-64
-188
-697
-1131
-1077
-653
-479
-862
-1040
91
189
37
-22
-120
-489
-648
-743
-746
-679
-595
-523
-473
-452
-450
-414
-371
-354
-414
-493
-489
-370
-193
-301
-457
-568
-671
-492
-386
-315
-285
-258
-191
-139
-183
-358
-609
-899
-935
-980
-896
-640
-388
-334
-425
-399
-141
85
-92
-629
-1030
-882
-373
-74
-267
-739
-421
-99
-145
-467
-706
-682
-618
-788
-842
-311
-162
-670
-840
-203
36
0
-236
-105
-27
-697
-939
-668
-88
286
161
-221
-382
-151
151
112
-723
-828
-674
-554
-592
-606
-414
-54
-292
-563
-365
-257
-400
-572
-482
-179
4
-218
-122
131
-23
-148
123
-150
-391
-50
288
191
-60
-208
68
301
346
-151
-243
-88
119
143
-30
-235
-342
-373
-406
-345
-184
-33
-1
-33
1
138
270
267
150
75
132
211
63
-82
-90
0
53
488
731
320
-77
-295
-179
-78
30
157
240
259
279
416
626
697
462
24
-314
-353
-203
-122
-238
-406
-486
-504
-586
-708
-711
-493
-227
-174
-330
-437
-316
-97
-21
-123
-218
-237
-292
-453
-574
-507
-344
-301
-535
-248
-185
-221
-168
-15
47
-102
-279
-224
45
240
187
46
138
561
1112
1560
1916
2342
2924
3621
4353
5135
5928
6549
6808
6880
5937
4217
3504
1936
1115
318
-1675
-1739
-1724
-1974
-1431
-940
-1303
-1334
-1057
-730
-642
-812
-1020
-1087
-1142
-1250
-1284
-1178
-1053
-1032
-952
-734
-614
-726
-895
-903
-782
-989
-1166
-1074
-805
-630
-657
-668
-306
-350
-623
-727
-452
-324
-463
-690
-715
-514
-615
-258
-235
-22
326
615
669
483
239
127
163
209
151
-49
-24
98
426
547
579
460
492
593
644
569
462
420
405
324
289
392
846
1055
1316
1275
1142
1002
989
925
858
911
1068
1600
1091
1393
1493
1401
1254
1393
1590
1754
1625
1404
1182
1234
1187
609
480
628
809
465
79
-56
87
219
62
-715
-881
-888
-1035
-866
-723
-1018
-1256
-1207
-1013
-1030
-1376
-1755
-1188
-1808
-1870
-1090
-1087
-1432
-1477
-1070
-937
-1199
-1517
-1466
-1075
-980
-1437
-1685
-1084
-949
-1181
-1491
-1557
-1390
-1253
-1352
-1283
-1081
-958
-1100
-1169
-1095
-968
-956
-1117
-1430
-1343
-1177
-1035
-930
-1171
-875
-1254
-903
-535
-429
-516
-534
-381
-195
-130
-139
-86
45
-225
-702
-1005
-627
-386
-638
-1186
-1451
-1042
308
114
-497
-694
-269
-76
-478
-510
-366
-265
-253
-164
-195
-418
-570
-119
-532
-236
135
-231
-421
-232
186
-108
-524
-790
-845
-824
-836
-892
-816
-632
-356
-87
17
-47
210
176
-167
-524
-554
-303
-286
-507
-454
-152
23
-186
-596
-808
-732
-812
-958
-985
-874
132
-549
-903
-969
-880
-516
-455
-392
125
295
198
-319
-395
-342
-284
-262
-259
-293
-407
-213
-67
-327
-568
-357
-225
-382
-920
-838
-660
-953
-1167
-1046
-392
-396
-509
-304
-565
-144
-394
-756
-361
103
-52
-199
-27
179
17
-435
-666
11
0
-469
-818
-553
80
388
-203
-222
42
-352
-188
-165
-134
-73
-57
-157
-338
-228
38
134
-55
-347
-454
-297
58
7
-103
-189
-244
-249
-155
210
241
102
-3
251
494
87
-295
-323
-364
-297
-168
-77
8
76
138
66
-124
-237
-156
-13
-18
-174
-256
-79
263
469
356
49
-149
-47
208
307
90
-286
-415
-109
415
714
601
322
236
422
616
557
285
66
56
193
320
636
138
277
480
618
572
349
165
223
429
421
-16
-597
-810
-478
4
138
-115
-366
-301
-69
-36
-277
-524
-506
-272
-123
-260
-575
-769
-615
-144
308
328
-179
-830
-1036
-611
0
192
-567
-99
-164
-617
79
153
-173
-460
-290
282
815
1027
1104
1380
1914
2509
3024
3551
4231
4988
5600
5995
6317
6727
7171
7374
7184
6314
6031
5688
3985
2879
1962
510
-310
-1086
-1626
-1914
-1780
-1209
-1049
-1022
-678
-423
-579
-1232
-192
-346
-829
-1058
-917
-974
-1205
-1062
-843
-643
-452
-293
-277
-563
-532
-389
-731
-1085
-1107
-738
-310
-205
-426
-433
-78
68
-636
-808
-608
-303
-550
-703
-87
220
171
415
118
377
416
355
279
167
320
528
506
111
389
951
1183
846
713
1072
961
605
241
284
285
433
735
964
824
857
1115
1422
1259
1189
1656
1531
1364
1377
1113
1853
1960
1796
1766
1948
1733
1332
1003
1111
1063
471
383
456
211
29
88
269
-29
-433
-696
-605
-569
-835
-990
-1031
-867
-920
-1129
-1432
-1386
-1351
-1434
-1397
-1332
-894
-1406
-1202
-1135
-876
-870
-1118
-1263
-831
-560
-1328
-1498
-1144
-838
-1307
-1574
-1351
-997
-975
-1175
-755
-456
-638
-1254
-992
-749
-1396
-1507
-1106
-604
-866
-908
-85
-115
-578
-852
-509
-369
-461
-257
-140
-186
-291
-220
-199
-291
-211
-124
-403
-619
-696
-591
-541
-484
-435
-409
-224
355
246
-122
-336
-142
-124
-465
-368
-166
-155
-121
71
81
-256
-455
-307
-215
-399
-151
-21
-322
-523
124
439
320
-417
-292
93
186
-71
-62
269
554
443
-58
-627
-390
-224
-788
-890
-550
234
134
-132
-241
-198
-268
-441
-274
24
273
118
104
324
245
240
480
515
400
43
-92
-196
-212
-55
62
-327
-512
463
-20
356
-430
-484
-224
129
119
229
848
887
647
188
118
-32
226
817
613
-19
-71
290
292
-68
-283
-38
-157
-313
-244
31
-2
-22
171
351
603
769
475
183
394
435
123
-322
-7
276
75
66
227
225
106
178
435
272
406
-357
180
139
-127
-41
301
359
-317
-375
-174
-227
15
556
219
-224
56
333
208
-406
-303
-39
231
297
302
15
12
191
197
-79
-215
258
455
459
167
602
201
344
1257
1283
892
459
361
575
742
616
298
70
108
365
722
640
406
159
27
16
-8
-175
-445
-600
-474
-170
75
111
7
-95
-137
-125
-89
-94
-225
-535
-860
-918
-625
-259
-185
-410
-606
-113
111
245
72
-158
-187
27
209
136
-63
144
423
587
750
1102
1636
2162
2598
3086
3721
4380
4900
5312
5772
6255
6557
6581
6511
6610
6285
5435
3434
2770
2072
75
-715
-1167
-1741
-1868
-1641
-876
-482
-964
-729
-677
-809
-811
-315
14
-198
-123
161
127
770
505
401
212
82
-77
-148
-7
803
917
730
558
676
1032
1296
902
615
634
1397
1473
1125
404
592
881
776
708
880
1022
867
955
1819
1809
1411
1331
1789
2020
2050
1748
2303
2327
1785
1611
1552
1407
1350
1325
1152
1090
1204
1484
1229
830
670
828
839
410
231
156
197
166
11
-286
-195
-94
-487
-689
-627
-446
-767
-1160
-1237
-1407
-923
-1193
-1668
-1400
-974
-1139
-2297
-2028
-1320
-1281
-1818
-1866
-779
-732
-1096
-1134
-717
-539
-1106
-1218
-1054
-832
-984
-1131
-1051
-887
-749
-698
-812
-901
-495
-128
5
-748
-574
-517
-242
-79
-124
-400
-462
-517
-321
-26
110
-42
-281
-289
-50
-65
-414
-550
-80
-133
-446
-616
-413
-65
4
-300
-604
-513
-145
-538
87
-269
367
596
496
-292
-415
-252
-101
-309
-407
87
221
75
-124
-100
180
436
48
-312
-429
-59
-15
-153
-309
-299
-125
12
-264
-372
-266
15
-20
-16
94
177
77
-133
-37
569
156
30
-185
-302
-307
-487
-537
104
301
152
-301
-251
-181
-423
-499
-393
-22
18
-3
-49
-16
116
295
352
180
-84
-163
8
209
206
-89
-14
112
52
15
-501
-467
-200
27
12
-352
-425
-437
-406
-384
-425
-647
-658
-559
-220
-59
14
-151
-166
-30
76
-168
-423
-408
-277
-148
232
337
276
128
119
-28
-318
-510
-421
-200
-44
-590
-139
-554
-997
-518
-56
-253
-414
-261
71
212
28
-27
87
88
-378
-512
-380
-120
-8
-141
-285
365
768
720
-219
-392
-359
-564
-735
-775
-629
-464
-153
295
121
-118
-41
-43
-132
-39
137
191
13
-275
-434
-342
-102
100
312
538
762
770
534
310
322
456
376
-51
-534
-650
-325
144
377
266
8
-126
-27
215
391
303
-10
-248
-113
371
830
890
579
300
404
316
623
229
409
703
815
715
604
655
690
395
2
-308
-455
-463
-423
-430
-535
-664
-651
-412
-92
49
-102
-385
-519
-380
-124
38
38
-39
-88
-115
-159
-179
-121
-69
-187
-538
-874
-823
-336
195
360
97
279
795
1788
1495
1319
1782
2795
3762
4263
4471
4849
5598
6434
6957
7117
7178
7338
7212
6520
5623
4195
3556
2732
563
-374
-974
-1244
-1365
-1541
-1785
-1908
-1731
-1292
-846
-562
-553
-507
-648
-931
-1197
-1198
-1345
-1274
-1382
-1409
-1123
-732
-233
-264
-447
-768
-681
-506
-695
-973
-1008
-322
-199
-414
-933
-921
-792
-443
-255
-109
-33
-4
58
70
-68
-312
-766
-709
-397
259
221
467
-148
279
255
128
332
571
613
420
607
865
745
585
596
674
726
988
1411
1121
839
1468
1755
1512
863
1102
1356
1176
1283
1676
1842
1527
1457
2204
2143
1591
1022
1511
1374
1518
1496
1102
924
194
-546
-371
-238
-498
-657
-460
-546
-884
-1502
-1462
-1249
-1183
-1474
-1721
-1342
-1090
-1180
-1723
-1633
-1417
-1512
-1542
-1300
-1147
-1519
-1510
-1118
-737
-821
-512
-651
-604
-293
-382
-707
-325
-564
-283
-478
-740
-437
-75
-34
-326
-1
344
-357
-736
-501
32
-467
-916
-234
46
-161
-266
37
-33
-861
-635
-165
-778
-1349
-1168
212
88
-412
-233
84
-87
-725
19
-196
-312
165
100
-314
-645
-304
-88
-623
-709
-337
360
27
-426
-128
210
85
-699
-510
-48
27
-190
-127
167
-108
-432
-262
-143
-264
-364
-86
88
-189
-228
-882
-286
-67
51
124
1
-71
-127
-561
-763
-679
-59
-82
-252
205
584
595
121
188
241
-387
-576
-412
-150
-317
-398
-174
-154
-154
71
20
-234
-603
-583
-594
146
-76
216
240
124
-287
-393
-294
113
16
-306
-518
-178
187
185
5
7
460
419
51
-569
-476
-379
-745
-679
-221
341
47
-135
527
571
133
-488
-330
-256
-33
159
-59
-217
186
-116
-171
265
433
-113
-34
276
121
-97
69
520
179
-250
-88
161
155
-180
-95
215
805
702
375
210
393
312
-513
-427
67
253
-194
754
657
52
60
402
688
679
578
682
1198
1166
976
796
676
600
565
580
566
472
423
599
948
1168
1040
704
526
603
709
573
230
-69
-177
-112
11
103
115
16
-93
-66
132
342
373
231
71
-413
-80
-331
-387
-384
-470
-608
-648
-528
-292
-61
68
83
0
-97
-149
-143
-127
-159
-204
-211
-163
-92
4
240
670
1138
1419
1481
1653
2286
3366
4426
5029
5222
5468
6134
7042
7606
7424
5994
5290
4693
514
-1381
-1572
-1680
-1627
-1230
-1113
-1024
-675
-545
-544
-634
-587
-596
-944
-1070
-1066
-1051
-1089
-1049
-696
-539
-457
-356
-336
-739
-925
-334
63
-117
-248
-386
-295
-210
34
-230
-324
196
385
484
615
727
680
476
367
479
453
78
132
342
523
531
600
522
262
120
726
1084
1128
732
837
1169
1329
911
471
488
780
1299
1326
1601
1619
1439
1535
1722
1229
1034
1208
1592
1363
1143
1547
1720
1609
1570
1830
1859
996
839
998
721
296
247
915
790
428
354
427
203
-307
-294
-369
-529
-848
-999
-1285
-1635
-1687
-1603
-1203
-1284
-1548
-1424
-1151
-1214
-1897
-1785
-1452
-1579
-1894
-1941
-1355
-1229
-1276
-1336
-1185
-978
-835
-851
-761
-516
-683
-930
-1042
-1113
-1307
-1170
-811
-494
-1404
-690
-495
-580
-845
-697
-360
-38
-321
-680
-692
-516
-510
-724
-623
-392
-139
-212
-291
-153
-140
-325
-600
-357
-130
-495
-517
-118
269
-202
-533
94
167
-239
-256
-63
-819
-659
52
-221
-646
-52
558
612
-354
-336
-18
-204
-529
-489
28
-110
-282
93
233
57
-381
-320
-200
-53
17
53
62
109
96
-153
-193
-165
-268
-281
-452
122
-552
-329
42
-126
-338
-208
346
153
-235
-167
-63
-479
-744
-760
54
290
105
-413
-125
336
337
-15
-207
-168
-34
72
134
109
-43
-197
-88
64
87
-331
93
-467
-585
-63
82
-74
-573
-452
-134
49
-164
-319
-123
-32
363
-28
492
269
-352
-682
-337
-108
-107
-389
-449
-417
-157
-58
-115
-466
-448
-273
-142
-247
-270
-51
-112
-279
-372
-293
-168
-177
-309
-378
-269
-70
283
425
180
-51
-88
-130
-270
-50
238
220
-398
-225
227
96
-437
-658
-417
-37
126
45
-76
-154
-224
-269
-189
-3
68
-118
-413
-501
-257
123
393
477
431
348
271
233
306
420
409
224
57
776
865
212
342
189
390
298
131
61
72
1
-166
-227
-71
84
-60
-442
-650
-477
-185
-187
-525
-792
-618
-115
219
42
-441
-718
-515
-99
36
-288
-722
-759
-325
162
265
9
-255
-146
-316
-398
-335
-210
-145
-108
90
601
1334
2023
2495
2811
3206
3854
4661
5354
5772
6049
6441
6949
7304
7252
6858
5969
5398
4460
3256
2140
1366
841
-391
-1038
-1389
-1321
-1415
-1617
-1498
-1144
-926
-1218
-1650
-1648
-1615
-1229
-1095
-1155
-1372
-1276
-1194
-1330
-1269
-1049
-924
-1015
-871
-265
-482
-977
-1103
-712
-576
-1347
-1561
-1332
-414
-408
-723
-923
-575
-364
-1121
-1010
-828
-926
-267
416
65
-34
6
247
338
264
-330
-327
16
292
-7
-108
199
662
877
757
459
506
576
585
444
250
476
826
936
669
994
1525
1354
842
697
1347
1340
1025
1559
1438
1372
848
1103
1394
918
500
443
988
936
647
527
649
503
-208
-155
30
-642
-1120
-1068
-379
-690
-1218
-1203
-1000
-1200
-1996
-1883
-1575
-1628
-1870
-1867
-1443
-1648
-2126
-1823
-2013
-1691
-1530
-1619
-2119
-2329
-2422
-1913
-1553
-1480
-1887
-1730
-1326
-1273
-1676
-1903
-1618
-1655
-1860
-1745
-1452
-1314
-1364
-1283
-1220
-1513
-1596
-1422
-782
-720
-874
-1031
-856
-938
-982
-1242
-1138
-1239
-1073
-854
-899
-1338
-1057
-530
-450
-885
-1074
-469
-280
-456
-1139
-1120
-861
-825
-1210
-1473
-1020
-817
-888
-988
-813
-737
-1060
-1112
-1038
-821
-719
-467
-541
-672
-576
-812
-889
-808
-791
-898
-836
-439
-536
-719
-438
-239
-322
-785
-772
-701
-862
-996
-1081
-1105
-1056
-1001
-1086
-985
-637
-97
-333
-668
-625
-559
-1061
-657
-413
-334
-327
-917
-946
-566
-571
-712
-646
-459
-387
-497
-577
-730
-1049
-1008
-925
-908
-886
-870
-966
-887
-700
-844
-1064
-1037
-723
-871
-1018
-681
-684
-958
-798
-486
-962
-970
-760
-793
-800
-392
-501
-819
-754
-591
-648
-901
-403
-958
-680
-684
-935
-1069
-722
-612
-706
-780
-543
-301
-425
-565
-527
-260
-411
-478
-475
-293
-92
124
-81
-374
-457
-340
-667
-1125
-1179
-907
-807
-878
-753
-605
-711
-833
-925
-1071
-1052
-934
-716
-669
-549
-230
-256
-392
-513
-536
-557
-299
-78
-74
-337
-850
-125
-255
-694
-883
-599
-212
-220
-575
-810
-678
-422
-433
277
-666
601
-186
-571
-316
-82
127
126
-169
-578
-764
-659
-550
-715
-1093
-1323
-1206
-911
-781
-933
-1140
-1157
-983
-837
-884
-1097
-1287
-1292
-1119
-907
-818
-899
-1014
-997
-808
-679
-775
-723
-572
-437
-385
-414
-495
-573
-510
670
2065
3212
3557
3918
4322
4773
5268
5773
6137
6211
6019
5755
5575
5423
5044
4252
1743
620
-120
-623
-1192
-1926
-2596
-2502
-1980
-1678
-1622
-1359
-1312
-1448
-1402
-1159
-942
-952
-1130
-1239
-1187
-1291
-1547
-1767
-1799
-1745
-1698
-1400
-1383
-1319
-1078
-795
-690
-819
-1001
-883
-820
-967
-1274
-1565
-1641
-1054
-710
-591
-933
-608
-34
-313
-819
-903
-378
-9
-534
-873
-849
-365
-383
-575
-844
-768
-548
236
-36
207
197
-199
-25
373
581
403
104
101
698
581
230
417
831
940
441
408
550
689
715
792
901
981
1161
1356
1216
1050
919
805
656
771
949
1021
1061
1200
1077
483
308
180
-75
-636
-750
-783
-973
-1130
-1258
-1275
-1056
-820
-1264
-1700
-1708
-932
-1273
-2054
-2077
-1390
-1243
-2190
-1984
-1431
-1718
-2132
-1990
-1458
-1866
-2219
-1591
-1484
-1878
-2284
-1163
-1696
-1812
-1163
-1275
-1751
-1842
-1312
-1034
-1752
-1909
-1594
-1231
-1696
-2104
-1507
-1133
-1182
-1277
-948
-845
-1720
-1790
-1431
-1383
-1728
-1659
-751
-773
-977
-695
-681
-1067
-1493
-1134
-1016
-881
-1414
-1633
-1415
-696
-834
-1071
-1070
-850
-711
-817
-952
-882
-685
-640
-1229
-1410
-1349
-1062
-1031
-1015
-904
-825
-751
-820
-948
-1016
-988
-1133
-1341
-1365
-1079
-729
-693
-1475
-1484
-452
-1044
-360
-71
-597
-881
-5
164
-253
-981
-693
-354
-471
-650
-708
-548
-425
-406
-908
-996
-789
-749
-1095
-1111
-72
-137
-763
-810
-15
338
-777
-918
-442
-315
-461
-63
-1
-668
-881
-815
-657
-755
-787
-453
-335
-326
-380
-416
-513
-747
-770
-624
-5
90
-89
-282
156
268
-724
-888
-476
-132
-644
-887
85
193
-259
-707
-340
-537
-387
-157
-79
-58
-81
-59
-38
-255
-473
-582
-379
-385
-510
-179
328
636
199
-38
-32
-55
-342
-606
-606
-569
-591
-377
-121
-19
-421
-438
-148
78
-352
-703
-160
197
-200
-39
55
-285
-497
104
426
434
121
170
274
377
486
575
244
81
235
601
803
608
219
217
526
660
378
258
120
-389
-462
-312
-164
-365
-466
-305
17
199
-572
-444
-458
-588
-487
-145
133
52
-340
-676
-663
-368
-136
-221
-546
-804
-770
-472
-129
41
24
-78
-164
-192
-167
-141
-186
-342
-512
-396
-190
-60
70
408
1019
1702
2200
2523
2920
3562
4361
5060
5541
5902
6704
4489
3072
2388
232
-746
-1129
-1029
-1432
-2027
-1911
-1303
-962
-1186
-1159
-915
-487
-495
-689
-1183
866
754
-1403
-965
-1320
-1997
-1380
-1303
-1232
-1227
-1391
-1315
-1196
-1502
-1760
-1730
-976
-761
-847
-1186
-1088
-830
-610
-795
-1024
-1229
-1463
-1145
-1205
-1050
-894
-905
-843
-659
-808
-632
-950
-1148
-604
-737
-268
-654
-614
-317
-569
-993
-1327
-1169
-985
-948
-1098
-1119
-648
-565
-703
-628
-413
-475
-1033
-790
-344
-235
-887
-68
-68
-823
-913
-862
-1004
-1005
-862
-157
-699
-276
6531
7322
4228
2896
1985
-409
-1291
-1767
-2137
-2359
-2493
-2344
-1918
-1485
-1341
-1685
-1696
-1589
-1691
-1867
-1972
-1866
-1643
-1401
-1637
-1999
-2171
-1566
-1410
-1216
-914
-739
594
-1636
-2177
-2140
-1798
-1393
-2065
-2031
-1363
-1312
-1515
-1579
-1376
-1317
-1611
-1573
-1399
-1348
-1365
-1219
-993
-1165
-1348
-1371
-1473
-1157
-676
-678
-856
-864
-603
-521
-472
-706
-1027
-824
-592
-707
-610
-399
280
-143
-34
-148
-405
-471
-194
277
39
-180
347
606
415
-555
-613
-364
-233
-478
-591
-29
272
389
-676
-75
85
-247
-860
-371
346
510
93
-73
341
-460
866
3150
-2400
-1144
-1199
-995
-892
-1051
-1021
-782
-628
-687
-920
-1161
-1241
-939
-794
-738
-643
-403
-94
54
-94
-354
-418
-242
-418
-932
100
270
-24
-198
-155
-37
29
63
280
-58
-350
-438
-291
-95
-60
-220
-452
-517
-235
875
1003
675
239
106
360
721
763
552
410
412
561
787
936
660
552
725
1052
1247
1167
1003
687
876
1104
1099
1246
1463
1529
1155
1121
1153
1190
1238
1336
1431
1347
1301
1414
1365
1247
1475
1691
1698
1581
1783
1881
1170
1010
1255
1113
367
-119
504
639
288
-115
-175
46
-30
-1027
-1137
-1264
-1309
-1216
-1262
-774
-589
-738
-1075
-1232
-1025
-653
-460
-566
-772
-834
-749
-723
-870
-1072
-1132
-1131
-1237
-1345
-1293
-1044
-736
-530
-507
-608
-707
-700
-737
-918
-1157
-1221
-1019
-745
-6
-372
-298
-463
-4
210
51
-183
-131
202
398
149
-371
-539
-243
-224
-488
-595
-240
337
254
-234
-352
-28
274
129
-302
-256
118
198
-150
-9
145
2
-301
-327
58
382
-38
162
66
60
-191
135
355
156
-35
-99
-50
39
100
70
-114
-359
-445
-240
259
213
224
738
699
335
57
140
364
292
-400
-174
346
730
178
276
83
75
347
501
472
423
400
297
-139
-103
37
-430
-729
-568
-66
284
221
6
77
458
759
680
142
187
302
238
2
-156
-79
120
190
53
-83
301
467
301
-67
275
-191
-95
-288
118
358
-162
-369
-235
81
208
61
62
202
273
165
65
178
393
378
-174
-68
259
380
152
-70
51
377
510
341
206
687
734
483
258
295
412
312
-278
-207
14
556
-173
631
655
-325
-336
125
468
64
-182
397
595
447
185
82
201
368
318
240
235
122
-54
-164
-119
14
79
0
-205
-141
0
188
206
199
128
134
177
180
83
-71
-126
269
-5
-64
103
308
356
250
114
119
359
505
237
25
74
246
211
-126
-503
-568
-315
-90
-152
-370
-398
-103
248
291
-8
-1
-275
115
402
392
183
121
348
579
842
599
639
650
601
587
624
601
454
323
377
576
536
363
370
490
435
119
-181
-150
138
323
209
-4
-47
91
186
137
93
141
158
3
-244
-334
-197
-48
-63
-178
-225
-195
-238
-331
-249
63
319
206
90
-459
-307
-661
-336
39
131
-13
-87
79
317
376
244
125
170
358
564
730
928
1238
1734
2397
3109
3716
4159
4570
5149
5900
6578
6938
6989
6991
7097
6885
6283
5518
4750
3953
3042
2096
-242
-948
-1598
-810
-805
-877
-883
-804
-697
-898
-1193
-1297
-723
-558
-708
-1122
-1025
-849
-783
-869
-949
-952
-805
-608
-516
-664
-786
-771
-794
-854
-874
-802
-702
-691
-794
-660
-401
-49
-322
261
214
-20
-203
-189
-54
35
-76
-71
49
248
259
325
472
586
524
300
103
208
229
105
20
172
519
889
813
775
803
801
722
650
636
626
675
1151
1299
1242
1101
1457
1699
1395
1154
1233
1473
1475
1119
752
787
1193
1536
1165
994
1094
1198
993
799
601
497
497
655
456
120
9
53
-178
-619
-918
-908
-766
-991
-1090
-925
-674
-632
-1107
-1403
-1552
-1544
-1317
-1826
-2066
-1882
-1495
-1739
-1893
-1317
-1196
-1376
-1564
-1503
-1579
-1795
-1649
-1505
-1652
-1598
-1316
-872
-1038
-1287
-1230
-1011
-970
-1488
-1524
-1259
-1011
-1215
-1223
-868
-1360
-1321
-1312
-1086
-576
-625
-734
-600
-654
-920
-1216
-1011
-827
-885
-759
-457
-318
-598
-754
-506
-591
-909
-1167
-943
-723
-638
-685
-794
-923
-883
-649
-551
-1199
-1354
-1035
-902
-650
-819
-421
-117
-690
-859
-593
-252
-657
-1029
-512
-83
-58
-721
-695
-403
-349
-639
-734
-292
-221
-290
-298
-360
-534
-516
-351
-387
-763
-640
-399
-294
-356
-412
-378
-879
-168
-432
-352
-194
21
113
120
-315
-512
-549
-600
-758
-875
-775
-650
-535
-463
-522
-535
-330
-330
-476
-564
-457
-458
-626
-480
-311
-671
-858
-742
-544
-826
-988
-498
-135
-387
-689
-422
-614
-868
-753
-679
-877
-822
-560
-92
-121
-210
-184
-73
1
-69
-298
-531
-543
-151
-265
-600
-684
-393
-264
-542
-554
-464
-384
-422
-660
-247
-437
-494
-286
-177
-941
-468
-817
-256
-106
-674
-1042
-512
-232
-317
-653
-887
-774
-417
-150
-391
-575
-505
-467
-455
-358
-508
-886
-1300
-272
-258
-805
-640
-292
-385
-1225
-1153
-802
-573
-622
-750
-691
-215
-239
-458
-670
-719
-614
-498
-472
-515
-529
-445
-315
-269
-370
-542
-624
-523
-346
-295
-426
-594
-601
-432
-295
-361
-584
-705
-556
-243
-39
107
-358
309
28
-444
-574
65
-90
-683
-1140
-1029
-515
-151
-293
-751
-1018
-826
-429
-280
-537
-959
-1190
-1146
-1033
-1057
-1162
-1123
-903
-708
-786
-1065
-1185
-973
-627
-535
-810
-1119
-1074
-727
-477
-599
-880
-903
-637
-538
-961
-1222
-689
-256
-177
-222
-58
331
723
1065
1543
2220
2876
3278
3560
4075
4925
5773
6202
6237
6254
6426
6499
6119
4338
3649
3117
2445
1494
474
-290
-1059
-1474
-1961
-2374
-2293
-1996
-1698
-1502
-1717
-1672
-1953
-1361
-1391
-1249
-1264
-1660
-1675
-1556
-1457
-1437
-1429
-1357
-1078
-944
-833
-704
-767
-903
-1000
-949
-762
-599
-945
-1296
-1449
-1305
-1003
-799
-850
-1326
-1352
-1174
-964
-1138
-1299
-1001
-697
-522
192
-438
-328
-271
-582
-563
-294
-37
-340
-579
-114
77
-77
-352
28
456
179
-237
-321
292
325
69
12
421
718
552
540
687
617
473
587
1137
1077
846
643
567
-5
762
647
820
898
334
245
433
330
0
-64
149
234
-56
-471
-474
-417
-667
-955
-621
-371
-731
-882
-904
-1360
-1647
-1695
-1633
-1703
-1918
-2018
-1577
-1466
-1523
-1555
-1672
-1979
-2846
-2426
-2890
-2801
-2103
-2168
-2337
-1754
-1408
-1493
-2057
-1872
-1567
-1709
-1889
-1810
-1415
-1408
-1414
-1270
-1396
-1640
-1921
-2000
-2163
-2223
-2008
-1865
-1880
-1606
-1133
-970
-1414
-1767
-1428
-1180
-1106
-1275
-1161
-1397
-1701
-1180
-588
-375
-952
-816
-218
467
62
-456
-736
-761
-791
-988
-1646
-1880
-851
-807
-631
-1085
-1322
-1053
-146
-233
-420
162
472
345
-1119
-563
-282
122
382
-13
-410
-554
-602
-880
-1442
-1908
-1530
-1262
-1746
-1862
-1660
-1444
-1668
-1925
-2225
-2199
-1958
-1545
-1668
-1747
-1339
-1334
-1563
-1237
-1194
-1315
-1115
-904
-800
-682
-233
-805
-767
-487
-341
-88
318
840
1531
1586
1544
1211
899
656
956
1222
1224
787
837
1072
958
434
-99
-221
120
368
280
348
643
945
577
101
-71
150
286
274
-549
-1482
-1487
-1302
-1484
-1608
-1008
-725
-750
-1117
-1282
-1574
-2009
-1710
-1284
-1429
-1762
-1775
-1146
-1125
-1361
-1712
-1607
-1350
-788
-813
-1055
-1011
-437
130
860
1379
1627
1372
3071
11064
12990
14439
15968
14771
12566
11453
9542
5510
2597
6409
3996
-4166
2449
19403
24959
-4605
-1777
17549
11725
-12475
-14780
26808
17373
-5530
12350
29372
16804
-14683
8377
28458
-6956
-11908
10431
27398
-12159
25926
18358
-11927
4385
22801
2351
-10363
-5933
8078
64
-7659
-1954
739
-1560
-5816
-3868
758
8634
7212
-184
-15683
-10468
2285
14195
2701
-13343
-22369
-11724
839
-3207
-13473
-20119
-11635
-27095
5
-7613
-2378
-18959
-20878
-4466
32410
25904
8735
-3199
4338
11308
6905
1802
1830
15765
17918
14099
6981
5409
2242
1884
9739
16937
10108
3815
3347
7652
3970
24
21307
27866
2194
24030
16226
3925
6211
12930
14480
14269
10586
8429
6996
7942
9608
10896
10747
10065
9645
9717
10030
10405
10866
10850
10703
9759
8903
8075
7444
7448
7436
7454
7566
7655
7542
6658
6397
4868
5211
5253
4771
5052
5339
5039
5011
5175
4892
4593
4544
4516
4258
4111
4312
4445
4593
5061
5184
5226
5243
5010
4719
4838
4835
4390
3427
3469
3559
3240
4268
4337
4673
4428
4756
5383
6166
5939
5762
6087
5751
4934
4097
4192
4036
3609
4050
4556
4247
4103
4370
4472
3804
3204
3604
4139
4346
4183
4410
4768
4299
3413
2718
2692
4624
4095
3058
2657
3334
4377
4590
3548
2074
1478
2277
3690
4324
3658
2430
1720
1760
1861
1352
436
-98
56
418
412
50
-62
520
1519
2309
2489
2205
1953
2013
2387
2786
2886
2548
1921
1304
951
888
987
1121
1262
1455
1775
2196
2567
2282
1982
1459
1042
1029
1371
1752
2050
2296
2511
2660
2723
2842
3082
3210
2961
2286
1546
1130
1083
1160
1117
1000
1075
1514
2139
2554
2470
1978
1597
1772
2350
2668
2337
1803
1965
2997
4092
4316
3680
3104
3272
3788
3838
3207
2567
2584
3114
3440
3199
2726
2524
2735
3121
3442
3548
3339
2798
2171
1955
2325
2755
2478
1378
258
58
728
1269
945
79
-320
243
1172
1510
1004
344
327
1030
1763
1838
1261
680
606
963
1246
1121
755
566
780
1301
1875
2322
2600
2740
2729
2561
2190
1667
1217
1074
1185
1190
839
392
411
1022
1678
1778
1335
986
1241
1890
2389
2524
2488
2552
2761
3075
3489
4017
4533
4756
4675
4538
4478
4356
3937
3226
2532
2196
2179
2160
1841
1127
318
-197
-228
-7
-59
-641
-1461
-1836
-1323
2244
2717
2302
1325
590
526
867
1066
866
589
702
1307
1921
1922
1153
235
107
1017
2181
2448
1452
202
-12
951
1853
1431
-138
-1486
-1542
-571
343
552
403
513
1000
1504
1834
2120
2490
2770
2740
2477
2354
2626
3120
3503
3577
3440
3281
3311
3485
3601
3483
3102
2782
2846
3253
3561
3336
2672
2113
1957
1896
1475
760
347
563
970
966
550
362
733
1229
1228
912
1124
2192
3359
3629
3040
2596
2972
3714
3923
3322
2527
2080
1930
1671
1261
1075
1219
1394
1250
868
749
1178
1832
2193
2039
1704
1630
1923
2244
2233
1792
1209
823
876
1287
1785
2124
2192
2098
2042
2105
2179
1998
1474
831
433
569
1153
1738
1907
1753
1646
1840
2212
2358
2051
1460
877
395
6
-265
-267
-37
199
316
507
1030
1731
2073
1784
1236
1072
1391
1613
1209
404
-66
178
771
1082
946
744
892
1346
1749
1873
1746
1519
1341
1337
1610
2100
2609
2849
2663
2228
1925
2020
2483
3000
3238
3139
2962
2977
3102
3035
2609
1982
1459
1159
988
837
798
1044
1532
1992
2144
1903
1450
1136
1160
1351
1272
665
-148
-479
86
1199
2055
2060
1362
615
386
704
1131
1173
749
289
368
1088
1894
2176
1860
1459
1446
1751
1911
1575
940
455
355
573
859
973
947
969
1095
1260
1301
1187
1152
1365
1691
1795
1530
1146
1107
1489
1917
1933
1433
834
662
1122
1885
2226
1724
665
-84
62
781
1158
624
-346
-685
2
1074
1561
1232
645
475
759
943
691
68
-615
-1111
-1348
-1236
-718
30
611
793
753
969
1669
2525
2974
2786
2338
2125
2194
2206
1863
1298
814
557
401
270
243
354
447
390
213
94
120
272
618
1170
1804
2089
