ECG_Raw
828
-1144
-2886
-866
-532
-185
-250
-266
-162
-339
-367
145
458
274
544
-628
-175
-263
89
-579
-375
-411
-680
-815
-885
-1070
-1158
-752
-709
-919
-954
-646
-538
-1121
-1269
-1225
-1500
-1791
-1880
-1775
-1690
-1681
-1287
-1209
-1152
-1193
-1570
-1911
-1735
-1658
-1966
-2581
-2322
-2014
-2338
-2460
-2236
-2006
-2362
-2628
-2233
-2069
-2223
-2682
-2624
-2428
-2186
-2214
-2307
-2506
-2466
-2280
-1927
-2028
-2226
-2260
-2687
-2319
-1827
-2496
-1854
-1839
-2180
-2186
-2066
-2074
-2246
-2337
-2104
-2012
-1995
-1871
-1813
-1866
-2126
-2131
-2071
-1942
-1796
-1620
-1532
-1629
-1687
-2572
-2039
-2329
-1933
-2799
-2762
-2731
-2905
-3028
-2473
-2462
-2557
-2450
-2280
-2233
-2617
-2609
-2283
-1831
-2128
-2444
-2063
-1698
-1621
-2023
-2055
-1901
-1548
-1513
-1561
-1653
-2091
-1706
-2313
-2285
-2376
-2414
-2427
-2576
-2628
-2108
-2125
-2482
-2557
-2088
-1872
-1873
-2054
-2031
-1637
-1793
-2022
-1818
-1633
-1639
-1790
-1702
-1579
-1355
-1071
-691
883
-153
-1844
-2696
-3202
-3836
-3609
-3187
-2646
-2478
-2179
-1361
-1139
-1147
-1499
-1533
-1386
-1085
-1122
-1198
-1087
-1010
-983
-885
-948
-1040
-968
-915
-1029
-1052
-1038
-1156
-1099
-826
-474
-874
-1151
-974
-896
-1033
-1169
-1401
-1429
-1315
-1154
-1386
-1718
-1909
-1811
-1830
-2228
-2315
-2214
-1767
-1608
-1555
-1659
-1680
-1652
-1793
-1770
-1572
-1559
-1562
-1264
-1189
-1311
-1390
-1080
-923
-726
-436
-346
-401
-620
-799
-441
-243
-348
-611
-273
91
-192
-397
-290
-145
-414
-535
-97
-168
-502
-460
-110
-78
-818
-818
-550
-436
-1076
-1207
-1022
-826
-886
-1140
-921
-765
-904
-1029
-1032
-974
-974
-1089
-1289
-1420
-1335
-920
-1044
-1352
-1497
-1295
-968
-1773
-1005
-1156
-1351
-1224
-883
-672
-753
-957
-980
-755
-529
-534
-737
-878
-508
-456
-659
-759
-681
-524
-729
-848
-835
-782
-786
-771
-658
-491
-411
-492
-675
-813
-821
-729
-573
-431
-401
-527
-712
-743
-512
-168
6
-127
-396
-519
-392
-142
9
-48
-253
-450
-500
-357
-51
-224
-549
-760
-712
-503
-371
-421
-519
-496
-459
-336
-666
-564
-308
-131
-179
-373
-511
-499
-408
-363
-451
-660
-890
-987
-878
-643
-499
-586
-817
-956
-888
-718
-641
-714
-810
-784
-630
-498
-660
-769
-752
-689
-748
-955
-1142
-1094
-840
-630
-598
-569
-287
180
489
455
917
-411
-552
-1388
-2159
-2909
-3389
-3470
-3210
-2834
-2547
-2363
-2109
-1632
-1013
-541
-431
-603
-774
-759
-600
-497
-622
-411
-167
-47
-73
-156
-238
-347
-475
-513
-414
-315
-384
-560
-569
-284
48
54
-284
-569
-446
-47
174
-295
-398
-244
-264
-407
-457
-358
-268
-326
-461
-517
-477
-475
-581
-707
-743
-718
-711
-683
-600
-531
-520
-530
-498
-433
-385
-353
-278
-153
-91
-202
-424
-566
-533
-397
-319
-351
-425
-441
-355
-197
-12
148
223
180
51
-86
-255
-103
11
-44
-120
-208
-287
-318
-282
-215
-278
-439
-599
-674
-626
-500
-448
-595
-879
-1041
-927
-677
-609
-838
-1120
-1144
-905
-715
-813
-1094
-1281
-1279
-1256
-1352
-1463
-1423
-1281
-1260
-1418
-1543
-1436
-1215
-1215
-1523
-1249
-1234
-1158
-1212
-1238
-1421
-1623
-1737
-1694
-1586
-1534
-1544
-1513
-1408
-1308
-1305
-1381
-1412
-1326
-1183
-1096
-1092
-1118
-1115
-1084
-1057
-1044
-1030
-1070
-1193
-1329
-1316
-1073
-779
-687
-846
-1004
-921
-689
-647
-967
-1468
-1146
-731
-583
-727
-96
-670
-824
-630
-374
-256
-350
-500
-460
-185
89
100
-203
-562
-667
-460
-171
-94
-277
-491
-457
-133
222
289
4
-341
-403
-138
161
192
-69
-354
-403
-217
33
183
59
-115
-234
-228
-142
-122
-257
-437
-471
-360
-346
-851
-772
-506
-366
-508
-764
-859
-751
-620
-669
-866
-1018
-1034
-999
-1014
-1030
-970
-862
-837
-935
-1026
-981
-853
-808
-904
-1014
-1020
-1066
-1047
-902
-824
-1007
-1319
-1391
-1045
-575
-426
-706
-1001
-818
-152
487
613
252
227
-1837
-2077
-2965
-3702
-4223
-4263
-3885
-3396
-3026
-2759
-2446
-2047
-1659
-1414
-1359
-1452
-1598
-1684
-1631
-1485
-1421
-1687
-1575
-1197
-875
-940
-1337
-1643
-1566
-1272
-1170
-1388
-1637
-1569
-1214
-919
-908
-1043
-1104
-1065
-1070
-1201
-1353
-1086
-1294
-925
-710
-863
-1052
-1168
-1100
-840
-616
-696
-1070
-1397
-1366
-1026
-681
-851
-997
-1015
-995
-1021
-1058
-1033
-912
-746
-611
-539
-515
-475
-389
-306
-312
-416
-550
-623
-617
-590
-565
-514
-395
-98
-30
-169
-302
-347
-269
-173
-164
-216
-218
-115
3
14
-54
-111
-129
-192
-349
-515
-569
-503
-439
-478
-611
-728
-732
-621
-497
-496
-658
-897
-1046
-1028
-934
-936
-1078
-1257
-1346
-1307
-1217
-1134
-1061
-1002
-977
-1002
-1039
-1017
-989
-1027
-1010
-1097
-1243
-1385
-1214
-1155
-1354
-1669
-1769
-1505
-1106
-943
-1132
-1431
-1505
-1291
-1033
-975
-1134
-1311
-1357
-1292
-1214
-1184
-1169
-1121
-1069
-1058
-1042
-978
-895
-889
-1003
-1118
-1063
-827
-611
-619
-817
-973
-897
-921
-926
-1190
-1124
-1040
-1026
-1032
-954
-798
-700
-750
-848
-837
-716
-661
-797
-1058
-1234
-1199
-1035
-923
-920
-926
-837
-667
-519
-460
-463
-481
-516
-601
-691
-709
-653
-614
-666
-752
-748
-626
-528
-565
-649
-636
-538
-526
-702
-936
-1004
-1020
-841
-957
-1056
-1094
-1055
-992
-935
-858
-733
-639
-693
-864
-968
-873
-693
-697
-961
-1221
-1173
-841
-571
-612
-902
-1150
-1186
-1122
-1135
-1227
-812
-479
-188
66
291
493
695
927
1125
1215
1192
1148
1156
1161
989
551
-32
-2560
-2849
-2626
-2051
-1732
-1457
-1248
-1054
-849
-681
-591
-522
-405
-290
-277
-348
-366
-224
-17
52
-109
-339
-89
-81
-272
-458
-443
-261
-144
-250
-446
-443
-151
142
82
-289
-544
-356
100
332
112
-245
-312
-33
-191
-315
-289
-462
-619
-516
-176
97
68
-133
-160
115
436
433
32
-457
-644
-427
-69
68
-140
-465
-530
-192
297
543
392
63
-102
-20
131
176
126
88
71
29
6
122
370
558
519
300
101
5
-61
-124
-105
22
50
313
161
413
368
130
-31
26
140
88
-131
-323
-376
-385
-509
-421
-371
-440
-543
-562
-459
-343
-359
-536
-760
-880
-860
-814
-890
-1113
-1347
-1465
-1427
-1291
-1143
-1032
-988
-1016
-1048
-970
-782
-657
-767
-1054
-1169
-850
-360
-399
-511
-582
-612
-586
-335
-807
-617
-795
-936
-883
-707
-661
-847
-1054
-976
-658
-479
-607
-835
-841
-659
-477
-411
-488
-581
-532
-319
-139
-188
-455
-735
-828
-741
-659
-390
-393
-551
-633
-570
-461
-435
-547
-684
-732
-686
-689
-824
-915
-889
-777
-673
-617
-580
-506
-429
-430
-1016
-786
-717
-984
-1049
-759
-411
-416
-800
-1125
-1022
-641
-464
-685
-975
-929
-580
-336
-468
-787
-950
-909
-857
-894
-901
-783
-636
-575
-489
-138
441
888
949
790
789
1073
1367
1355
1039
631
268
-81
-447
-810
-1216
-1757
-2394
-2879
-2567
-1212
-893
-782
-801
-733
-525
-296
-293
-598
-941
-959
-622
-300
-357
-713
-968
-905
-574
-437
-179
-90
-355
-740
-805
-445
-66
-137
-633
-1068
-1026
-564
-136
-107
-426
-735
-743
-488
-237
-237
-465
-643
-574
-365
-89
-823
-41
349
90
-506
-757
-420
27
5
-462
-852
-847
-616
-503
-382
-83
128
48
-137
-78
249
505
388
31
-166
-47
175
219
67
-34
47
199
240
148
69
97
176
197
153
104
55
-12
-58
2
193
360
274
-146
-294
-217
-245
-283
-229
-119
-91
-199
-372
-280
-270
-397
-576
-634
-517
-367
-394
-610
-792
-744
-527
-387
-482
-672
-718
-562
-357
-245
-241
-299
-398
-520
-600
-565
-453
-401
-466
-545
-508
-344
-187
-152
-468
-711
-453
-428
-549
-297
-160
-231
-406
-512
-496
-440
-428
-475
-507
-491
-436
-375
-339
-339
-369
-389
-339
-208
-40
18
-153
-462
-635
-461
-56
189
10
-394
-575
-360
-78
-129
-471
-685
-515
-174
-45
-179
-281
-512
-481
-419
-377
-270
-121
-13
-4
-70
-184
-369
-580
-700
-613
-383
-217
-232
-323
-316
-203
-157
-275
-427
-433
-322
-287
-407
-502
-400
-173
-96
-308
-618
-720
-574
-423
-498
-743
-889
-804
-624
-662
-739
-681
-361
-532
-690
-558
-515
-646
-810
-840
-745
-682
-711
-714
-560
-317
-217
-386
-680
-836
-752
-574
-517
-656
-842
-878
-695
-391
-128
45
222
500
857
1161
1313
1363
1459
1627
1696
991
439
-23
-431
-886
-1411
-1938
-2393
-2700
-2767
-1373
-609
-676
-804
-729
-526
-525
-819
-1087
-980
-580
-300
-345
-484
-412
-154
7
-76
-215
-218
-147
-191
-400
-606
-664
-631
-618
-612
-405
-229
-114
-96
-123
-134
-127
-161
-284
-435
-454
-248
64
231
156
20
80
335
-85
-63
-394
-234
40
152
-41
-402
-616
-540
-319
-178
-145
-63
108
185
26
-187
-146
92
125
-246
-643
-532
71
451
-4
-163
155
498
419
48
-132
29
205
102
-99
-15
369
659
575
322
288
820
760
1009
656
367
243
230
126
39
160
90
-154
-299
-154
-155
-542
-489
-235
-41
-30
-117
-208
-374
-390
-318
-335
-501
-589
-424
-409
-412
-238
-275
-444
-470
-302
-333
-461
-396
-338
-264
-156
-65
-105
-264
-370
-291
-119
-31
-253
-275
-169
-103
-221
-310
-301
-234
-174
-184
-401
-504
-457
-149
-269
-283
-110
93
100
-37
-105
-16
102
6
-22
-201
-865
-158
30
-217
-444
-42
278
138
43
6
-106
-241
-213
-18
67
-132
-395
-355
389
286
-148
-348
-100
-93
-374
-630
-589
-319
-76
-41
-71
-9
63
93
-231
-393
-350
-303
-527
-606
-355
-525
-777
-823
-522
-545
-694
-789
-698
-458
-271
-324
-599
-873
-929
-803
-707
-792
-941
-690
-366
-101
397
694
886
1036
1240
1432
944
476
220
-142
-805
-1620
-2113
-1924
-1871
-752
-407
-393
-441
-449
-375
-281
-396
-638
-734
-144
-1
-220
-464
-115
200
53
-89
-128
-225
-191
-21
7
-285
-486
-26
179
57
-404
-234
75
-79
-368
-384
140
-317
5
326
-203
-493
-371
-88
-390
-600
49
241
-15
-338
92
434
-232
-463
-163
286
-149
-514
119
395
243
-31
187
269
-166
-143
61
-178
-448
-382
137
-23
66
223
130
217
388
187
76
-45
-136
-202
-282
-403
-514
-430
-366
-399
-539
-585
-695
-1109
-1153
-988
-774
-1025
-1300
-1037
-733
-673
-995
-943
-755
-611
-616
-551
-800
-842
-1151
-818
-344
-712
-1129
-796
-445
-475
-982
-859
-613
-794
-1021
-989
-543
-588
-754
-609
-470
-603
-1066
-904
-643
-758
-830
-631
-314
-484
-576
-308
-423
-733
-870
-670
-559
-468
-828
-929
-781
-341
-405
-571
-591
-519
-532
-577
-513
-495
-501
-369
-229
-400
-523
-474
-329
-379
-316
39
-84
-327
-143
18
-173
-553
-715
-572
-466
-892
-740
-202
-88
-873
-859
-584
-417
-605
-806
-515
-242
-259
-524
-688
-561
-709
-129
-732
-245
-339
-563
-462
-315
-108
-2
156
617
880
1130
1533
1629
1600
1190
879
-2010
-2607
-2108
-1613
-1265
-1011
-774
-488
-418
-558
-628
-587
-427
-108
128
-191
-407
212
334
-22
-586
-309
-62
-148
27
363
238
-136
-232
175
18
-463
-980
-706
-353
19
16
248
182
-129
-121
-97
-281
-328
-281
-231
-246
-189
23
0
-115
-230
-19
305
358
26
-132
443
508
167
-291
48
440
524
392
276
323
471
141
-124
310
2
188
311
176
-303
-146
147
-15
-318
-366
68
22
-245
-510
-390
-288
-476
-611
-578
-90
-77
-417
-1035
-780
-444
-972
-1410
-1339
-480
-577
-942
-918
-643
-617
-911
-669
-676
-753
-1058
-761
-343
-259
-793
-675
-271
-196
-641
-954
-732
-626
-654
-647
-556
-487
-420
-411
-452
-480
-480
-542
-600
-416
-265
-581
-614
-366
-135
-395
-426
-75
-225
-37
151
-96
-263
-290
-399
-547
-606
-525
-592
-684
-561
-453
-455
-593
-574
-549
-633
-673
-636
-545
-606
-678
-381
-115
-62
-584
-626
-368
-192
-459
-546
-645
-402
-1213
-977
-166
-324
-798
-1221
-978
-789
-1071
-1118
-902
-494
-573
-658
-508
-548
-782
-1201
-1035
-697
-396
-547
-657
-427
-459
-756
-1153
-971
-874
-1412
-1420
-972
-166
-322
1410
1405
775
234
-318
-1505
-2105
-2542
-2715
-2668
-2619
-2084
-1559
-1139
-855
-522
-126
-364
-589
-181
90
73
-413
-479
-408
-406
-598
-818
-730
-365
-73
-193
-244
-66
-370
-620
-362
-235
-437
-454
-290
-84
-278
-491
-522
-493
-533
-395
-217
-174
-354
-228
-13
-160
-362
28
53
-365
3
-175
183
677
413
117
235
312
181
-44
17
-2
-313
-352
-341
-628
-779
-793
-731
-769
-743
-562
-649
-861
-1079
-1004
-733
-840
-1062
-673
-866
-684
-749
-1036
-1158
-699
-731
-775
-459
-228
-461
-523
-384
-332
-512
-592
-501
-641
-839
-852
-821
-895
-842
-669
-606
-821
-820
-735
-700
-698
-655
-530
-817
-619
-464
-519
-619
-687
-782
-866
-925
-844
-849
-969
-1112
-910
-637
-611
-817
-872
-449
-430
-730
-1160
-862
-487
-741
-1112
-1131
-370
-328
-615
-848
-619
-481
-565
-493
-324
-668
-489
-628
-859
-668
-470
-516
-769
-618
-431
-501
-617
-676
-579
-475
-428
-609
-600
-425
-306
-509
-637
-350
-239
-246
-58
143
199
-89
-96
38
17
-178
-216
191
141
77
56
394
915
1490
1926
2000
2290
2811
2461
1843
999
702
188
-1182
-1617
-1806
-1823
-1762
-1625
-1113
-552
-85
79
118
39
127
318
515
430
310
271
384
121
173
-511
-495
-327
-315
-393
-307
129
193
178
253
264
193
-4
-107
-221
-142
12
50
-223
-279
-221
-152
-249
-401
-539
-407
-240
-273
-388
-325
-341
-310
-415
-352
-342
-590
-591
-216
35
-389
-581
-489
-190
-328
-579
-675
-429
-201
-379
-574
-555
-313
-505
-785
-709
-537
-539
-514
-251
-88
-482
-562
-379
-440
-926
-1245
-812
-665
-687
-598
-830
-874
-711
-649
-841
-854
-767
-667
-679
-658
-631
-733
-830
-722
-642
-681
-802
-711
-604
-624
-610
-505
-588
-897
-1100
-599
-361
-476
-803
-519
-164
-679
-881
-1104
-946
-532
-680
-614
-706
-462
-753
-1100
-998
-791
-873
-1423
-1264
-839
-688
-1021
-1150
-608
-588
-904
-1232
-953
-674
-801
-968
-958
-850
-658
-520
-488
-773
-920
-977
-972
-980
-923
-681
-710
-866
-889
-699
-622
-913
-944
-821
-741
-795
-771
-777
-909
-955
-619
-685
-1001
-1103
-724
-531
-1172
-1291
-987
-1068
-1424
-972
-709
-930
-890
-638
-704
-1091
-917
-929
-431
265
344
358
897
1231
1260
698
522
360
-1493
-2062
-2627
-2880
-3090
-2835
-2407
-2008
-1546
-1380
-759
-1023
-622
-556
-672
-697
-419
-137
-18
-12
76
192
163
137
56
2
1
145
130
85
258
379
358
28
12
142
247
34
-163
141
372
305
-88
85
309
251
-109
43
-133
18
242
227
22
303
676
720
567
566
656
524
416
551
576
471
483
665
742
518
515
608
605
611
702
433
30
-185
268
452
409
289
385
631
280
156
-301
-316
-203
-227
-372
-432
-230
-151
-175
-432
-473
-387
-556
-961
-1205
-496
-226
-463
-1098
-797
-344
-248
-405
-476
-612
-650
-542
-427
-666
-889
-644
-306
-229
-435
-1034
-1035
-904
-1101
-1251
-1072
-316
-291
-416
-236
-84
-135
-463
-476
-414
-413
-496
-569
-569
-532
-535
-607
-579
-485
-356
-446
-634
-788
-623
-504
-722
-637
-357
-696
-1098
-1023
-870
-648
-508
-344
-325
-573
-831
-653
-389
-388
-977
-893
-538
-452
-707
-738
-510
-693
-799
55
312
5
-703
-410
-58
-436
-773
-799
-373
-320
-396
-327
-515
-496
-609
-835
-826
-836
-968
-847
-601
-550
-721
-669
-81
-192
-614
-830
-471
-271
-758
-862
-674
-485
-742
-937
-579
-428
-550
-543
25
615
694
652
1035
1973
1797
-423
-2579
-3411
-3072
-2478
-1693
-1352
-913
-318
-160
51
0
-461
-833
-513
-287
-308
-389
-232
-113
63
85
-248
-320
-254
-393
-520
-388
65
-126
-403
21
341
247
-366
-665
-792
-660
-593
-806
-885
-490
-602
-967
-996
-670
-642
-1307
-1175
-686
-420
-792
-1019
-670
-570
-646
-658
-570
-576
-616
-506
-841
-911
-779
-535
-625
-717
-512
-374
-971
-1244
-916
-967
-1012
-792
-657
-1234
-1471
-1310
-837
-1104
-1405
-826
-482
-661
-1362
-1068
-655
-1026
-1351
-1250
-716
-894
-1213
-1264
-1066
-982
-614
-798
-1229
-1269
-1056
-974
-1291
-1493
-1537
-1541
-1749
-1959
-1733
-1492
-1416
-1398
-1131
-799
-695
-803
-766
-485
-591
-864
-1335
-1438
-1529
-1691
-1649
-1482
-1005
-916
-932
-804
-701
-771
-1141
-1206
-1074
-491
-780
-880
-361
-325
-592
-883
-757
-743
-1060
-1083
-1051
-1154
-1199
-1150
-966
-883
-767
-635
-661
-697
-657
-647
-674
-707
-664
-618
-542
-399
-175
-65
-281
-231
-415
-452
-740
-838
-346
-107
-78
-501
-648
-601
-262
-229
-272
-389
-414
-342
21
-58
-397
-644
-264
26
-436
-632
-449
185
153
-10
-71
-1
-12
-357
-479
-433
26
1042
1288
1399
1466
1355
1120
389
-100
-736
-2190
-2576
-2675
-3133
-2990
-1698
-1259
-1193
-1252
-1143
-1008
-664
-603
-793
-1162
-829
-318
-128
-391
-525
-289
-186
-173
-358
-452
-376
-77
432
263
-285
-81
276
7
-339
-260
722
825
672
873
1152
1125
256
152
244
-75
-287
684
1341
1481
766
794
1102
1040
681
525
690
653
591
339
579
1156
942
339
550
831
287
-127
-98
722
778
557
423
674
886
683
455
350
547
666
658
346
264
327
477
129
41
87
55
-245
-391
-481
-479
-427
-194
-290
-537
-520
-479
-655
-823
-742
-759
-922
-1026
-875
-827
-1047
-975
-821
-1053
-1312
-1315
-826
-865
-1124
-1223
-957
-783
-1048
-1162
-1143
-1093
-1110
-1066
-964
-967
-874
-537
-755
-1402
-1372
-1187
-1286
-1396
-1008
-626
-483
-923
-933
-682
-767
-1200
-1426
-928
-774
-821
-865
-827
-777
-374
-318
-695
-1605
-1342
-852
-1052
-1481
-1540
-909
-849
-957
-907
-729
-1098
-317
-585
-874
-578
-342
-422
-404
-386
-744
-745
-478
-541
-991
-1125
-384
-490
-1001
-1132
-683
-522
-1115
-1127
-878
-706
-808
-808
-647
-651
-676
-714
-781
-847
-1135
-699
-690
-856
-808
-1312
-1093
-379
389
331
377
1226
1407
1223
800
630
221
-882
-1186
-1543
-2920
-3312
-3143
-2576
-2757
-2807
-1409
-735
-659
-1052
-752
-616
-467
-310
-713
-574
-255
-214
-428
-228
16
-13
-87
-58
36
83
168
-25
-235
-6
105
107
172
268
334
242
236
246
20
-16
142
275
3
-143
316
270
-179
-568
-169
137
-237
-362
-195
189
115
-53
-335
-435
-506
-497
-400
-309
-311
-297
-372
-750
-1098
-425
-456
-694
-558
-443
-817
-950
-839
-676
-748
-648
17
91
-80
-326
-317
-383
-667
-703
-656
-565
-484
-369
-245
-330
-458
-394
-142
39
-174
-353
-226
-253
128
277
114
-264
-19
273
144
9
54
252
269
272
72
-50
50
493
368
100
243
448
372
23
152
266
-6
86
426
370
-47
-129
675
608
265
326
142
-24
135
606
407
86
76
187
131
-81
11
120
-18
-2
223
279
96
514
662
476
121
337
548
412
405
532
310
23
-38
315
247
9
-216
-723
-684
-574
-681
-895
-1007
-497
-243
-335
-978
-906
-591
-548
-855
-974
-565
-505
-637
-788
-781
-840
-956
-865
-753
-603
-385
-68
329
429
626
1166
1248
1240
1260
1122
-964
-2445
-2125
-2040
-1759
-617
-221
-20
345
435
313
12
74
90
-293
-394
-279
121
189
200
314
461
558
208
-94
-218
-34
-122
-347
-250
-183
-295
-228
-118
2
-260
40
-228
-659
-323
87
60
-58
40
418
528
651
644
443
395
1068
1211
959
369
447
606
774
876
942
722
762
1099
1537
1090
488
621
1189
1430
689
485
751
1092
987
751
479
413
550
677
802
708
512
459
637
604
-141
-204
84
357
78
-137
-23
-14
-53
-243
-122
-871
-922
-702
-968
-1375
-487
-408
-949
-832
-450
-202
-451
-627
-412
-243
-172
-168
-136
-123
-234
-311
-338
-321
-349
-400
-329
-238
-236
-546
-614
-563
-532
-606
-584
-353
-330
-371
-316
-315
-715
-688
-590
-609
-614
-612
-681
-765
-752
-666
-586
-633
-809
-999
-925
-763
-764
-1197
-1006
-700
-706
-688
-615
-720
-868
-864
-743
-701
-968
-1019
-837
-289
-346
-564
-479
-564
-548
-604
-532
-511
-458
-317
-453
-679
-745
-718
-864
-963
-594
-261
-529
-702
-645
-712
-1017
-1173
-885
-1108
-978
-631
-497
-1022
-1172
-1050
-641
-585
-613
-800
-821
-799
-324
136
736
1137
845
986
1604
1952
1085
181
-296
-626
-1463
-2865
-2788
-2584
-2650
-2398
-1785
-1002
-1170
-1290
-612
-347
-431
-547
-123
154
-141
-480
-569
-358
-209
104
-34
-564
-703
-345
-225
-344
-502
-220
108
264
223
177
-57
-53
116
197
-50
-243
-113
-61
-109
-219
-358
-529
-263
89
175
-139
115
571
547
222
757
557
116
187
545
695
547
330
259
430
328
112
82
305
451
416
413
415
254
294
512
732
474
159
140
285
254
-335
-490
-384
-75
-222
-464
-521
-399
-389
-682
-636
-848
-759
-376
-734
-641
-354
-395
-1200
-1145
-753
-762
-1135
-1200
-751
-859
-1044
-723
-570
-644
-599
-443
-543
-1033
-930
-722
-703
-588
-297
-278
-507
-503
-164
-438
-238
-70
-306
-426
-561
-603
-515
-236
-381
-607
-365
-75
-35
-443
-405
-245
-332
-498
-570
-564
-563
-456
-136
-187
-331
-190
31
74
-347
-399
-240
-132
-357
-529
-745
-594
-459
-421
-220
-61
9
-144
-144
-67
-109
-171
-109
114
85
40
350
328
-113
-251
-159
168
-29
-388
-417
-97
11
-534
-639
-494
-302
-402
-463
-430
-486
72
40
-28
-361
-147
-16
75
-104
-151
-128
-109
-203
-242
444
977
1295
1476
1811
2253
2385
2172
2040
-1806
355
345
72
-70
289
669
545
506
862
874
711
540
549
457
162
187
300
368
305
247
239
221
159
-95
-183
-169
66
84
-25
-207
-56
181
236
40
153
-35
20
-31
2
154
323
98
130
526
520
344
150
171
164
233
402
502
364
445
715
980
770
570
785
1041
1191
1101
1030
1082
1301
1138
785
362
721
547
449
418
313
229
239
51
-244
-286
-49
54
-251
-323
-229
-11
-257
-694
-574
-364
-397
-479
-382
-162
-299
-402
-69
-41
-329
-883
-704
-425
-529
-767
-509
-707
-1139
-923
-713
-1173
-1349
-1126
-433
-441
-493
-283
-337
-559
-759
-725
-786
-930
-859
-793
-730
-590
-487
-759
-821
-588
-129
-249
-412
-443
-521
-658
-711
-775
-1023
-693
-468
85
-30
-287
-168
-33
-242
-419
-400
-175
-278
-327
408
699
505
-180
23
320
58
-39
198
496
255
109
292
161
-77
183
529
683
745
897
986
605
396
497
870
518
204
34
157
182
63
-65
144
383
279
107
122
333
172
-26
144
198
44
-40
184
217
-289
-182
202
311
-38
-193
132
83
-190
-469
-282
-25
1395
1726
1652
1748
1403
853
314
-270
-597
-1164
-2324
-2451
-2247
-1659
-1466
-1286
-798
-580
-451
-384
-351
-309
-274
-151
82
321
176
25
86
31
-222
-557
-403
-189
-24
56
214
-224
-140
352
265
-53
13
154
220
177
158
245
274
260
344
478
527
166
136
368
623
382
207
527
570
402
452
656
607
84
241
603
550
723
605
450
877
1185
1182
707
685
736
545
417
364
392
384
374
437
559
668
409
208
198
303
43
276
-195
108
13
-208
-351
-234
-103
-256
-418
-333
-525
-444
-389
-568
-896
-726
-557
-613
-551
-438
-693
-769
-534
-160
-430
-630
-143
-49
-316
-738
-612
-490
-418
-320
-301
-361
-150
55
-355
-589
-472
-59
-560
61
12
-539
-225
244
-110
-547
-564
-92
-304
-617
-506
-364
-385
-323
-205
-243
-397
-170
61
-340
-611
-579
-129
-106
-185
-37
68
90
7
-51
-22
-91
-77
-207
95
-48
-283
-206
2
5
-378
-281
-29
-63
-245
-185
441
516
313
-114
-36
180
192
-68
-225
-52
-157
-453
-627
-467
-497
-884
-725
-413
-407
-643
-814
-1083
-1145
-1039
-1467
-1356
-1277
-1397
-1291
-1078
-972
-1078
-1151
-1371
-1511
-1492
-927
-729
-679
-277
167
504
591
630
760
940
881
612
-807
-1585
-2024
-2518
-3083
-3610
-3214
-2577
-2122
-951
-1277
-759
-605
-500
69
160
-42
56
235
217
120
143
126
20
68
578
608
761
472
209
423
525
212
9
246
227
8
-51
184
295
39
16
48
-304
-492
-458
-161
-149
-79
386
419
214
-16
26
-333
-243
-14
6
-169
-215
-469
-626
-322
-299
-895
-972
-856
-1055
-1274
-1183
-487
-468
-682
-764
-613
-638
-1206
-1353
-1254
-847
-785
-766
-704
-742
-867
-1109
-1118
-1093
-1147
-1176
-1083
-609
-544
-693
-925
-791
-702
-705
-345
-396
-516
-236
75
187
-310
-497
-426
-72
-182
-461
-619
-412
-280
-539
-641
-653
-772
-757
-544
-319
-578
-766
-251
-158
-512
-1066
-793
-514
-783
-944
-894
-350
-105
5
-663
-522
-276
-378
-524
-432
-178
68
100
-95
-283
-432
-463
-450
-260
-287
-455
-410
-101
55
-467
-625
-476
-140
-269
-421
-227
-101
-174
-549
-439
-60
144
-417
-771
-468
-483
-730
-802
-346
-315
-568
-837
-601
-434
-765
-786
-520
-241
-489
-668
-380
-327
-487
-663
-544
-496
-658
-623
-500
-460
-540
-546
252
1256
1381
1440
1769
1740
1350
29
-412
-682
-1611
-2249
-2631
-2319
-2015
-1809
-1099
-790
-401
-356
-347
-234
-147
-92
-25
27
104
206
139
38
206
398
421
267
518
111
150
401
576
5
-205
-115
303
229
15
69
392
613
486
457
555
579
479
490
583
436
294
898
880
745
995
1259
1191
1090
1071
884
761
768
744
692
624
600
676
737
704
516
613
777
590
313
208
441
407
232
92
122
115
119
81
-65
-193
72
331
-16
-267
-195
196
-1
-323
-264
-391
-998
-1020
-1205
-1006
-894
-792
-1200
-1296
-1172
-960
-1044
-1141
-1097
-1069
-1155
-1308
-1138
-871
-723
-859
-943
-707
-549
-503
-689
-679
-535
-339
-425
-487
-383
-417
-487
-345
-300
-473
-510
-305
-254
-325
-411
-488
-483
-431
-316
-337
-371
-284
-293
-385
-495
-444
-405
-354
-248
-185
-543
-772
-817
-623
-712
-899
-940
-701
-420
-233
-374
-505
-255
-106
-188
-339
-161
-459
-471
-1
-50
-340
-444
-174
-47
-454
-585
-486
-295
-442
-641
-681
-571
-479
-328
-265
-261
-279
-252
-301
-653
-753
-807
-1053
-1029
-781
-358
-461
-583
-402
-245
-1068
-643
-1005
-829
-590
-371
-402
-579
-435
-55
-630
-1188
-1276
-485
-363
-454
-161
369
992
1729
1645
1444
1551
1610
1325
195
-196
-570
-1685
-2134
-2378
-2876
-3060
-2854
-623
197
-601
-795
-309
-226
-407
-530
-293
-137
-256
-213
-82
-210
-138
5
-85
-78
190
14
-323
-200
161
232
-202
-14
404
591
450
438
319
51
-112
65
65
490
642
-13
161
736
669
465
602
844
872
454
439
567
500
358
366
691
727
579
672
315
896
575
474
533
512
467
542
471
41
84
252
-229
-440
-421
-371
-462
-523
-479
-453
-438
-683
-978
-1147
-790
-759
-1063
-1531
-1166
-689
-750
-1036
-1026
-482
-545
-822
-908
-651
-502
-803
-935
-811
-77
43
243
-357
-42
-187
-282
13
-64
-366
-440
-203
-154
-392
-262
-51
-79
-172
-175
-201
-256
-242
-228
-324
-345
31
102
-56
-223
-42
69
-184
-170
38
282
254
327
644
57
719
-68
218
710
106
-292
-186
29
-342
-577
-121
-57
-220
-344
-334
-475
-623
-393
-192
-363
-457
-402
-141
-82
-133
-406
-407
-242
26
-63
-180
-220
-222
-218
-210
-395
-405
-270
-61
-48
25
232
120
-94
-206
-165
-268
-566
-411
-131
-116
-337
-394
-120
-193
-410
-358
-93
8
-240
-101
210
131
-200
-257
177
-63
-535
-393
592
445
801
1857
1917
1857
2380
2645
2517
1551
1115
658
-641
-1742
-2103
-1964
-1679
-1108
-788
-308
451
301
-59
-386
-391
-470
-640
-606
-538
-206
122
356
114
-4
7
404
-52
-28
151
57
-188
-225
343
443
274
116
349
482
-92
-344
-274
-11
-209
-449
76
226
-19
-122
-10
465
407
99
-196
64
322
193
40
79
486
372
281
258
447
542
501
232
308
507
421
108
-67
159
223
132
-60
-56
-29
235
418
483
55
-190
-274
-100
-73
-169
-242
-48
201
297
111
-135
-491
-511
-624
-740
-490
-507
-1202
-1165
-703
-55
-327
-635
-202
176
229
-156
-94
109
175
115
183
444
380
249
361
539
538
-58
-130
144
503
177
-140
408
787
674
-345
-602
-502
-600
-810
-668
-336
-188
-575
-651
-536
-441
-585
-694
-534
-470
-522
-582
-465
-387
-711
-885
-858
-561
-591
-724
-764
-650
-560
-588
-640
-692
-771
-743
-651
-386
-429
-647
-280
-445
-326
-137
-83
-396
-537
-446
185
137
-286
-610
-187
76
-608
-706
-305
117
-305
-654
-442
-406
-612
-974
-976
-958
-967
-1018
-245
-558
-712
-1067
-1180
-561
-496
-767
-941
-556
-249
-592
-807
-760
-565
-724
-877
-690
-579
-582
-366
-14
349
825
1053
1337
1860
2003
1978
1163
523
26
-586
-1137
-1864
-1334
-371
-175
-408
-338
-103
-9
-294
-364
-262
-51
-167
-332
-342
-267
-286
-362
-272
-193
-357
-440
-424
-294
-290
-287
-352
-497
-605
-420
-344
-466
-731
-544
-285
-237
-320
-138
-477
-310
-229
-283
-424
-451
-521
-396
-134
-24
-356
-258
81
166
-101
-102
530
506
251
176
305
405
166
288
-36
106
138
-311
-144
-3
172
257
284
207
100
-138
-557
-473
-353
-643
-738
-579
-298
-442
-554
-425
-494
-656
-579
-404
-353
-495
-457
-347
-267
-311
-358
-480
-555
-598
-479
-659
-857
-812
-604
-435
-602
-639
-457
-237
-434
-624
-569
-545
-602
-505
-362
-326
-363
-233
-75
-140
-281
-308
9
91
-12
-292
-192
-79
-513
-807
-817
-356
-296
-322
111
-720
-563
-159
-180
-569
-124
-746
-381
-501
-276
-79
-397
-563
-437
-12
-171
-478
-399
-4
-31
174
-180
-45
175
200
95
104
235
93
-72
170
252
54
-264
-37
137
-252
-339
-200
-232
-459
-519
-281
-343
-497
-712
-656
-315
-383
-623
-447
-2
185
-341
-175
324
741
1511
1660
1677
1775
1853
1733
618
-84
-620
-1433
-1989
-2526
-2744
-2516
-2359
-2145
-1835
-1460
-1146
-1159
-1117
-891
-837
-779
-457
-233
-45
-126
-232
-150
-104
-478
-239
-55
4
-36
-160
-100
-87
-488
-559
-352
-19
-202
-348
-12
105
75
-261
18
-339
-317
-10
238
-28
-176
220
333
262
18
-52
-98
-296
504
312
206
465
518
354
-272
-233
-164
-244
-337
-97
150
228
-25
16
169
21
-196
-264
-419
-717
-893
-516
-515
-793
-814
-415
-198
-581
-632
-459
-361
-587
-942
-856
-856
-1029
-1061
-974
-1087
-1133
-826
-877
-1147
-1239
-956
-770
-906
-991
-1031
-914
-694
-565
-1103
-1299
-1101
-543
-653
-777
-411
-286
-381
-530
-539
-632
-760
-703
-698
-564
-413
-886
-745
-115
-327
-560
242
532
241
-364
-130
-38
-839
-985
-753
-731
-940
-771
-582
-510
-815
-895
-735
-331
-417
-552
-568
-602
-684
-419
-229
-306
-693
-438
-731
-489
-597
-459
-375
-502
-461
-294
-156
-313
-453
-280
-114
-83
-314
-344
-287
-172
-100
-1
-155
-419
-487
304
504
196
-570
-315
94
-77
-423
-529
-148
8
51
68
-240
-25
-82
85
350
442
170
193
289
51
-112
-107
-118
-313
-427
-73
113
179
320
518
763
1245
1438
1583
1974
2229
2344
1835
1467
1160
137
-678
-1375
-1803
-1875
-421
-114
61
-81
-172
-183
-300
-356
148
288
87
-199
149
520
438
316
402
567
425
286
141
22
-43
242
382
377
307
284
181
9
104
180
-39
48
65
-82
369
152
-380
-165
149
111
41
163
254
123
204
853
700
222
135
557
690
41
-30
190
518
526
541
455
414
481
515
300
98
128
122
-1
6
98
527
-220
-196
-676
-287
-42
-251
-390
-146
-471
-484
-245
-191
-443
-528
-245
-295
-465
-477
-402
-426
-537
-477
-446
-716
-760
-571
-68
-126
-359
-574
-486
-489
-444
-565
-369
-493
-505
-331
-265
-370
-308
-257
-434
-416
-283
-310
-365
-220
99
-84
-293
-43
115
13
-435
-362
-130
-81
-361
-532
-131
-29
-235
-567
-335
-136
-419
-466
-291
-167
-283
-366
-318
-449
-526
-540
-403
-313
-291
-432
-347
-157
-141
-330
-417
-282
-353
-435
-479
-497
-328
-362
-578
-701
-478
-340
-531
-522
-397
-767
-472
-684
-820
-137
77
-198
-956
-844
-654
-913
-1037
-939
-719
-737
-668
-482
-725
-1060
-876
-493
-403
-1047
-1089
-816
-955
-1155
-801
-638
-624
-567
-535
-644
-966
-931
-470
957
1196
1126
1204
1549
1259
645
-472
-931
-1515
-2615
-2876
-3025
-3018
-2647
-2141
-1511
-1317
-1061
-733
-713
-649
-569
-692
-743
-416
-463
-766
-710
-437
-636
-769
-656
-849
-323
-435
-658
-250
50
-103
-951
-708
-137
-103
-491
-487
255
148
-241
-437
-300
-297
-235
16
167
-227
-345
-210
-62
-299
-495
-292
-120
-49
-76
-107
-181
-288
-295
-154
-390
-108
195
-84
-343
10
252
186
-379
-334
-53
216
17
-204
-243
-225
-290
-373
-342
-326
-202
-66
-24
-54
122
255
-487
-885
-817
-448
-825
-1228
-758
-1037
-793
-727
-1061
-953
-647
-497
-544
-418
-231
-453
-693
-800
-838
-869
-686
-614
-644
-495
-248
-141
-723
-987
-937
-490
-575
-786
-635
-328
-214
-514
-507
-347
-254
-267
-394
-464
-445
55
306
-504
-716
-465
-185
-535
-765
-203
87
136
46
53
24
-48
-24
5
125
217
204
-31
108
401
150
-294
-370
457
441
14
-357
-133
-58
-160
324
443
350
216
149
53
-39
-15
-17
-81
43
329
628
484
307
237
165
39
130
262
185
-241
-97
203
-130
-658
-801
187
329
-58
-546
-174
141
-285
-551
-469
-911
-641
-678
-836
-872
-787
-798
-942
-881
-753
-735
-829
-771
173
649
785
623
850
1223
1359
967
450
-230
-288
-437
-1788
-2478
-2633
-2266
-2503
-2751
-1863
-1267
-1145
-658
-710
-714
-1006
-618
-264
-220
-454
-362
-310
-625
-591
-376
-560
-857
211
-434
258
-409
-597
-397
32
-133
-332
-144
20
-9
-351
-361
-284
-310
-385
-577
-415
-589
-365
-106
-77
-127
-67
-60
-227
-314
-106
-156
-395
-597
-356
-98
-87
-213
-264
-6
146
146
-131
-97
64
59
-129
-207
-31
-92
-244
-121
118
210
-146
-389
-453
-431
-734
-699
-425
-176
-470
-737
-381
-106
-111
-550
-534
-326
-137
-295
-467
-617
-733
-895
-1032
-1027
-1101
-1260
-1178
-1103
-1278
-1269
-1082
-820
-918
-1000
-941
-1028
-798
-716
-863
-913
-929
-1012
-1053
-1107
-1475
-1621
-1510
-976
-1057
-1303
-1201
-940
-912
-1134
-998
-894
-1302
-1384
-1169
-922
-1081
-1090
-560
-531
-742
-975
-867
-796
-1113
-1368
-899
-896
-1000
-1015
-941
-1019
-1165
-1166
-939
-1058
-1271
-1190
-944
-802
-883
-832
-649
-388
-484
-659
-691
-514
-425
-833
-990
-889
-557
-691
-880
-751
-608
-636
-810
-702
-573
-635
-1177
-867
-994
-1297
-1068
-750
-674
-800
-793
-575
-735
-817
-667
-591
-949
-1028
-852
-457
-573
-772
-897
-928
-1023
-1080
-975
-746
-562
-438
-194
273
1063
1116
1075
1374
1625
415
-1310
-2529
-2723
-2537
-2053
-1978
-1779
-953
-778
-858
-872
-629
-378
-253
4
-418
-524
-236
37
-275
-437
-182
14
126
242
318
198
255
450
500
263
109
302
375
293
122
208
329
327
211
129
239
364
480
595
661
787
1045
992
828
730
878
771
1117
1047
751
691
480
249
44
16
66
39
-19
83
139
-238
-426
-390
-345
-751
-1188
-776
-315
-304
-897
-622
-113
-144
-489
-577
-510
-771
-1034
-1022
-766
-651
-558
-779
-771
-489
-153
-445
-643
6
125
-242
-647
-192
153
-344
-446
-177
139
-32
-114
38
4
-75
-11
-3
-83
-131
-41
31
19
1
181
317
373
47
382
554
102
-213
291
467
301
67
249
339
122
129
205
68
-23
36
353
407
310
-171
-214
27
356
57
-275
-206
-142
-267
-276
-83
-392
-203
-474
-837
-928
-727
-818
-862
-482
-363
-409
-468
-436
-464
-683
-857
-993
-847
-812
-1028
-1369
-1036
-647
-722
-817
-667
-562
-827
-982
-692
-670
-816
-832
-562
-568
-592
-598
-230
84
433
773
1207
1669
1645
1588
1543
1404
1061
-208
-812
-1231
-1950
-2410
-2737
-2458
-2103
-1826
-1238
-826
-483
-316
-353
-333
-184
-171
-204
36
140
486
792
818
568
267
261
202
118
208
301
563
904
1178
659
306
332
710
534
299
421
569
666
934
929
712
520
765
972
790
663
647
775
873
944
621
398
829
918
838
1122
973
1221
1283
964
912
1543
1445
1090
1140
1424
1474
1210
1190
1121
890
1012
1160
826
692
899
1376
1128
749
598
653
539
99
35
44
-193
-114
-364
-814
-730
-561
-520
-570
-531
-322
-325
-392
-73
-285
-239
-878
-558
-159
-413
-696
-678
-259
-294
-460
-480
-312
-594
-645
-458
-425
-591
-520
-355
-288
-361
-323
-57
-81
-169
-239
-299
-387
-301
-195
-219
-380
-333
-342
-648
-650
-517
-592
-530
-239
-273
-331
-150
-76
-136
-328
-174
-175
-188
68
226
275
266
343
434
503
503
471
184
69
115
374
306
120
42
240
386
107
-87
-124
-24
-121
-224
-123
-141
-322
-460
-292
-228
64
-99
-120
-327
-309
-135
-73
-163
-112
-46
-180
-419
-664
-715
-538
-475
-665
-370
298
1231
1183
1211
2032
2293
2219
1669
1300
808
-249
-687
-1186
-2292
-2530
-2466
-767
-211
-339
-393
-279
-335
-142
-157
-349
-394
-70
-288
140
2
599
692
557
603
938
1192
932
714
701
1110
1165
1017
809
1031
1310
1295
1165
1057
1375
1286
1584
1341
959
921
1428
1303
1028
1406
1851
2000
1756
1806
1903
1785
1739
1384
1317
1444
1460
1223
1147
1484
1386
1156
1509
1847
1786
1177
1310
1568
1349
1261
1096
801
738
550
227
328
445
315
374
636
842
568
331
559
674
520
-26
69
353
365
44
-113
638
487
-142
-146
28
138
-4
-116
63
254
-188
-451
268
357
337
559
707
225
20
77
198
84
108
509
562
619
1172
1244
991
744
1019
1136
550
460
635
597
445
552
1043
902
617
822
814
780
449
697
924
614
481
660
1088
991
924
1301
1268
939
841
1204
1301
500
462
835
1096
805
697
1017
964
875
1356
1554
1419
948
1010
1145
1053
873
705
614
763
280
-10
29
241
288
100
313
448
301
127
1
120
290
255
61
-46
163
283
356
459
476
496
713
687
432
-20
87
223
141
238
610
1455
1630
1705
2246
687
282
-397
-2149
-2257
-1876
-1548
-1606
-1319
-179
19
316
322
71
34
401
570
-14
-126
50
104
-140
-244
111
163
41
28
210
291
-139
-342
-359
-74
-49
254
106
-288
-187
28
-89
-221
-13
187
244
-25
-179
-278
-320
-243
-139
-156
-268
-272
272
213
7
60
159
223
210
173
110
76
31
70
253
374
959
312
647
496
475
665
601
-42
8
277
347
175
127
154
46
-15
102
-57
-356
-326
106
364
-218
-539
-488
-1
-209
-701
-962
-746
-736
-729
-642
-523
-476
-728
-557
-460
-321
-350
-259
-141
-499
-804
-807
-323
-458
-767
-606
-191
41
-228
-474
-650
-517
-292
-260
-860
-933
-628
116
102
-140
-620
-565
-356
-282
-322
-316
-105
-351
-349
-565
-733
-818
-573
-378
-354
-721
-641
-292
83
-79
-164
49
0
-104
-37
-173
-509
-586
-335
-375
-1048
-865
-332
32
-201
154
164
136
50
17
190
238
215
155
142
67
-74
17
8
-80
-117
-55
-103
-216
-283
-204
-236
-749
-871
-732
-391
-481
-638
-569
-381
-226
-331
-567
-736
-768
-384
572
1049
1013
1048
1538
2398
2028
1437
948
681
47
-1512
-2016
-2392
-2695
-2495
-2167
-1604
-1315
-999
-597
-521
-477
-369
-172
157
398
147
-5
507
612
369
158
534
251
-222
-217
-145
175
204
31
-407
-374
-197
70
69
34
78
175
235
-39
-210
-210
100
136
71
100
58
-158
-126
8
134
42
-21
217
373
396
331
156
378
238
-127
75
339
37
-180
-21
496
210
-172
131
461
488
186
267
393
360
350
378
297
259
351
670
634
457
240
270
276
-12
-150
-36
-154
281
-234
347
-283
-649
-112
259
-424
-683
-425
297
176
-42
-65
-34
-70
-60
-9
-16
-158
-246
-307
-109
22
-70
-464
-242
82
-168
-418
-285
439
448
332
472
52
187
347
156
518
-232
123
-189
-52
467
563
426
98
329
640
224
-320
-547
-236
-438
-477
-533
-781
-725
-505
-345
-525
-603
-134
-52
-277
-731
-607
-470
-750
-871
-814
-830
-1026
-1118
-911
-908
-1007
-957
-826
-734
-641
-687
-855
-994
-807
-682
-805
-870
-731
-659
-861
-1050
-1116
-854
-687
-454
317
660
919
1396
1563
1613
1493
1294
898
-71
-410
-785
-1978
-2415
-2521
-2385
-2361
-2201
-1409
-1094
-929
-365
-289
-507
-474
-51
609
528
396
392
452
346
106
378
757
697
450
349
269
182
180
137
39
-20
18
6
-38
26
99
40
-76
-194
-315
-295
-224
535
632
475
437
425
399
426
715
520
295
498
675
355
229
401
807
675
579
1035
1005
547
40
444
767
216
69
337
657
450
355
432
173
-86
174
209
8
-219
-584
-636
-241
-155
-299
-588
-345
7
-104
-394
-423
-11
-92
-304
-166
-179
-230
-206
-281
-400
-247
-139
-454
-476
-269
-227
-521
-671
-357
-328
-433
-69
-176
5
91
-22
69
235
23
-165
-99
158
-110
-441
-260
7
39
-272
-209
-38
49
-5
16
-20
-188
-288
138
217
-93
-679
-320
157
-248
-792
-899
-94
-79
-326
-304
265
331
98
-290
-123
109
98
-1
64
601
740
676
326
284
337
362
242
64
6
214
383
65
-123
-50
386
389
320
400
421
364
333
272
56
-68
121
207
108
136
72
-94
-77
132
216
-228
-380
-284
15
-119
-310
69
565
937
1224
1399
1598
1787
1822
1781
967
321
-208
-1066
-1651
-2227
-2748
-2798
-2808
-2249
-1710
-282
-400
-15
184
42
-137
-165
42
262
178
16
61
546
566
440
383
440
455
519
457
262
221
521
612
-153
-148
313
513
45
-110
759
848
575
532
668
918
497
650
985
773
514
536
603
538
493
598
529
343
171
361
524
383
-289
-85
389
246
-255
-343
543
633
401
283
441
529
638
669
531
110
171
177
364
120
94
161
144
67
-28
-16
-43
-403
-524
-453
-271
-403
-537
-136
-202
-375
-365
-440
-538
-275
-35
-566
-805
-528
215
-139
-638
-231
225
194
-317
-154
-53
-297
-653
-579
-375
-264
-527
-757
-477
-270
-287
-619
-708
-839
-1025
-812
-567
-912
-1211
-1162
-729
-1017
-914
-619
-503
-772
-807
-892
-1255
-436
-1080
-1119
-923
-752
-790
-750
-368
-233
-252
-597
-704
-697
-740
-864
-887
-498
-496
-742
-803
-444
-229
-594
-552
-234
-136
-497
-712
-435
-477
-771
-1019
-743
-509
-116
-964
-326
-308
-908
-922
-731
-658
-763
-765
-738
-803
-768
-333
-313
-539
-913
-845
-712
-693
-819
-937
-661
-367
-226
-292
-102
233
475
609
1108
2149
1877
1282
910
860
-2397
-1835
-706
-98
35
173
371
284
311
858
725
208
66
561
669
-125
109
721
645
184
203
870
556
-23
-158
192
372
-18
-210
-161
405
413
107
-227
-355
-68
25
-164
-207
-159
-180
-232
-312
-421
-244
-50
-264
-445
-381
80
-23
-346
-459
-112
173
-75
-215
-66
406
314
129
195
295
208
-17
183
421
146
-125
106
330
241
500
790
676
591
667
621
468
138
-25
-210
-340
-267
-403
-270
-55
-96
-307
-393
-310
-453
-681
-804
-694
-609
-880
-1121
-1169
-456
-230
-387
-488
-50
-790
-1298
-737
-413
-583
-1037
-711
-309
-221
-310
-312
-328
-308
-194
-98
-217
-281
-47
-21
-115
-4
209
247
-121
-51
208
51
-378
-617
-502
-649
-911
-789
-595
174
-184
-265
-471
-95
-39
-183
-133
78
175
78
154
333
680
693
541
120
158
297
205
20
-7
437
605
605
298
199
248
494
474
421
640
706
589
47
199
472
358
26
38
105
-88
-315
-448
-293
-180
-175
-341
-332
-237
-102
-154
-229
-250
-162
-24
113
32
-61
69
145
75
-246
-191
32
421
444
449
826
2050
1052
3
-384
-1294
-1732
-1871
-1417
-1263
-1228
-756
-285
87
221
163
146
200
149
-6
-280
-224
-53
296
351
324
245
261
273
212
228
311
478
538
622
435
304
364
316
255
334
426
-99
161
289
664
881
412
147
84
82
50
108
256
153
43
188
309
157
607
557
692
772
703
683
692
613
552
721
739
546
83
193
457
473
249
191
505
397
117
144
325
140
-810
-726
-269
-444
-581
-24
66
-143
-637
-771
-401
-233
-144
-175
-188
-131
-190
-353
-395
-117
107
-242
-483
-452
-106
-226
-480
-533
-327
-198
-247
-211
-110
-98
-142
-96
-61
-236
-373
-46
127
113
156
-198
27
-289
-223
-34
-48
-286
-217
-131
-286
-281
-103
49
-198
-420
-57
237
276
-200
-293
-240
-407
-634
-703
-438
-447
-499
-59
118
-77
-675
-478
-182
-272
-53
-154
-360
179
469
371
-253
-228
-421
-456
-421
-571
-614
-423
98
-73
-434
-495
-173
9
-183
-146
9
-57
-250
-294
-9
-74
-298
-231
184
527
297
49
1
621
1347
1499
1566
1824
2069
2260
2098
1859
1677
1404
1013
-210
160
35
-42
255
395
169
248
257
221
-27
-145
-60
430
308
-70
-340
-200
-153
-312
-364
-435
-320
-9
157
-330
-416
-184
9
-184
-252
-70
-152
-246
-60
-37
-129
-210
-233
-286
167
242
523
173
231
1016
1048
795
707
931
999
680
581
519
416
533
719
633
462
454
746
712
541
330
342
319
-148
-553
-865
-619
-283
-148
-410
-339
-36
-557
-667
-862
-1008
-906
-814
-714
-690
-743
-643
-408
-575
-807
-825
-455
-467
-568
-283
-35
-5
-336
-268
-35
10
-204
-334
-203
-179
-223
-318
-283
-152
114
-46
-424
-68
300
1
-339
-174
190
388
-58
-254
-171
220
186
90
20
-47
119
168
8
-268
-121
-24
-463
-621
-716
-400
-433
-35
98
72
-295
-29
260
281
-222
-68
361
503
262
264
686
501
200
413
549
318
-69
278
627
202
-63
10
362
236
46
-88
-91
-41
224
209
71
133
371
447
312
-309
31
295
-100
-346
-238
211
44
-171
65
119
-59
387
1199
1725
1294
1405
2138
3106
2555
1799
1234
1082
579
-1079
-1683
-1943
-1934
-1921
-1870
-1332
-930
-594
137
59
-233
25
-146
16
385
595
311
305
539
710
440
225
298
288
187
212
251
192
196
342
431
403
485
577
479
466
572
638
541
497
475
396
393
448
762
311
181
454
705
849
465
483
819
901
861
739
819
948
1064
1043
980
670
568
633
769
595
430
720
896
864
690
811
926
669
500
479
575
439
561
623
510
220
-97
-56
-2
20
27
-22
-199
-99
146
242
-4
-183
-191
-465
-808
-803
-897
-1198
-1020
-646
-404
-644
-802
-488
-362
-445
-762
-756
-643
-395
37
-311
-437
-95
37
6
-107
-57
-46
-260
-289
-202
-168
-232
-177
196
174
9
-24
37
-114
-708
-704
-542
-576
-647
-436
263
176
-79
178
453
334
-309
-60
-504
-212
227
795
882
210
221
418
153
-209
-336
-42
-65
-182
76
325
358
129
272
492
318
125
160
628
613
347
-163
-65
180
181
-47
-109
249
242
98
-177
153
-208
-98
142
5
-123
170
314
245
124
347
554
311
176
296
672
489
114
-290
-172
-35
-102
-54
282
1453
1856
2077
2415
2506
2478
2358
2221
1773
269
-2006
-846
374
310
-104
115
266
-248
-317
-48
329
214
168
431
490
481
435
383
376
620
615
409
190
416
632
475
350
370
597
693
773
665
482
416
376
939
66
-115
431
519
592
618
188
366
286
507
959
1067
678
626
1610
1602
1008
378
897
1361
769
393
508
1151
963
653
906
1137
1161
784
610
591
712
499
243
359
492
432
242
322
387
309
293
282
62
-35
-48
-30
-137
-377
-430
-323
51
14
-163
-219
-31
60
-300
-424
-378
-177
-238
477
269
-602
-450
-72
-127
-409
-450
29
137
65
-156
-163
-180
-384
-361
-166
-9
-145
-120
463
444
121
-224
-115
-100
-41
226
129
-103
-158
172
195
122
98
204
49
-46
344
384
65
-474
-219
94
-129
-381
-398
29
223
320
-43
-419
-594
-256
-266
-526
-499
-100
138
-69
14
224
5
-225
-153
284
131
-78
150
58
-216
-180
-66
-57
-43
-2
-61
-182
-401
-333
-203
-444
-674
-562
360
340
-45
-43
424
545
-346
-428
-49
318
-13
-223
137
123
-141
-103
227
363
1652
1958
1938
1650
1160
680
-8
-1294
-1589
-2078
-1897
-1515
-948
-734
-479
-164
-207
-264
-128
-13
119
323
355
334
186
52
-37
118
158
58
172
557
828
433
197
308
443
230
48
588
651
277
-117
353
740
230
0
144
376
-62
25
122
258
728
756
596
668
955
1035
394
261
479
910
692
391
585
987
1199
816
831
560
569
1139
1193
922
480
729
1028
631
184
79
755
769
366
-33
408
827
403
57
98
693
388
207
305
311
40
13
60
-192
-478
-601
-175
-47
-93
-374
-494
-548
4
-23
-306
-14
474
507
-507
-524
-159
-234
-686
-852
-237
-73
-110
-114
-75
-114
-183
-147
-177
-406
-352
-197
-122
-144
-48
73
-83
-186
-325
-325
76
211
-5
123
478
418
-93
-372
55
64
-192
-113
237
316
-119
-34
148
-337
-667
-619
14
46
276
243
-157
139
73
-215
-335
-101
209
316
755
647
492
408
361
187
-35
-292
-224
25
115
-268
-356
-238
79
79
-8
-128
-8
209
401
285
184
146
44
-54
184
232
41
-48
329
557
86
-338
-361
-534
-120
65
-116
-144
503
1062
737
711
1321
2544
2277
1827
1839
1735
1110
-323
-594
-933
-2175
-2300
-1877
-1329
-1516
-1465
-276
75
22
34
275
333
-75
-77
-351
55
188
267
115
-8
-60
124
203
175
26
105
235
207
119
147
450
418
185
134
432
444
332
437
948
914
681
345
340
286
-42
-64
81
571
206
463
510
329
384
495
492
488
562
666
637
672
794
704
593
751
837
715
480
674
859
508
276
299
542
429
238
0
-530
-897
-1254
-833
-827
-906
-873
-581
-445
-394
-491
-595
-697
-639
-547
-620
-1056
-934
-542
-196
-452
-676
-432
-537
-125
36
-108
-31
-79
-350
-242
-78
-404
-585
-398
123
-178
-570
-184
151
46
-504
-269
63
-241
-526
-476
17
-73
-296
-265
-53
123
344
303
111
-200
-71
118
301
246
38
18
-160
-247
-257
-330
-400
-338
86
148
51
-168
-230
-308
-384
-370
-404
-630
-613
-419
-53
-297
-252
41
52
-817
-929
-684
-633
-966
-1029
-432
-435
-460
-479
-720
-614
-604
-842
-1000
-820
-842
-1013
-888
-521
-328
-718
-732
-377
350
290
198
925
1484
1730
1199
924
818
263
-519
-1424
-2465
-2640
-2896
-3363
-3102
-2567
-456
-786
-454
-449
-579
-491
-465
-681
-552
-240
17
-59
-14
345
385
299
0
-118
-139
40
-3
-135
-4
194
199
-203
-139
105
218
81
54
417
542
549
816
221
139
801
749
1095
711
426
530
972
651
222
564
952
912
142
261
666
748
457
415
953
921
651
638
829
741
168
316
656
816
516
555
301
-40
145
327
-55
-407
-599
-340
-157
-174
-551
-208
-51
-543
-953
-714
-585
-707
-803
-619
-513
-430
-264
-256
-911
-956
-676
-666
-1029
-1093
-507
-686
-521
-522
-264
-481
-480
-401
-405
-628
-723
-733
-549
-507
-539
-689
-732
-683
-365
-318
-453
-537
-218
70
-230
-438
-368
3
-75
-255
-501
-470
-299
49
-112
-404
-426
-348
-178
-202
-290
-209
-72
50
127
253
199
37
9
232
135
-61
-143
-96
-119
-132
-55
-25
-227
-326
110
42
24
-27
429
207
-155
-423
-446
-103
-91
-212
-446
-432
-343
-301
-437
-557
-353
-213
-249
-450
-336
-183
-230
-232
-66
-46
-426
-774
-584
-455
-549
-647
-296
195
949
1084
1084
1302
-155
-2309
-2740
-2577
-2013
-1663
-1338
-873
-646
-419
-187
-223
-293
-262
-71
125
69
-126
-221
-200
-280
-348
-72
93
60
-153
0
239
208
-29
-167
-66
-92
89
514
27
-4
382
219
-32
137
252
112
-2
219
230
-221
17
486
316
-104
-102
563
365
-86
-70
293
448
334
497
750
651
424
432
890
765
372
408
647
709
572
410
354
343
433
389
322
542
718
725
392
336
414
537
56
-388
-341
-265
-483
-613
-586
-201
-15
66
-204
-379
-378
-233
-437
-704
-573
-368
-156
-462
-491
-479
-725
-743
-625
-616
-738
-702
-409
-503
-647
-347
-205
-385
-1011
-889
-559
-428
-621
-582
231
-94
-500
-290
-217
-951
-1109
-816
-181
-352
-619
-917
-853
-760
-567
-407
-624
-895
-882
-588
-377
-639
-811
-794
-608
-719
-888
-901
-764
-275
-587
-582
-846
-981
-937
-644
-667
-762
-619
-431
-399
-969
-1186
-419
-151
53
-178
-544
-912
-819
-751
-1016
-1102
-1015
-872
-1023
-1150
-982
-935
-1083
-1271
-1018
-768
-1129
-1431
-1459
-1138
-1235
-1434
-1323
-1041
-852
-1002
-1136
-1069
-348
-199
-409
-775
-809
-163
-212
199
707
932
862
1056
1798
1737
1457
1280
1175
695
-688
-1107
-1449
-2301
-2446
-2258
-1823
-1696
-1424
-621
-464
-493
-617
-684
-755
-624
-466
-399
-404
-267
-92
-528
-739
-156
318
356
-6
-85
6
-65
-323
-462
-91
126
246
402
461
468
488
529
486
75
-24
114
648
697
617
624
686
662
552
613
628
305
251
390
581
416
355
456
784
784
709
691
725
682
367
374
514
520
465
553
771
930
666
501
551
804
588
221
96
326
404
-68
-178
-60
231
255
220
-2
-418
-232
-259
-323
-291
-382
-750
-651
-409
-571
-880
-946
-502
-525
-724
-767
-632
-591
-609
-590
-665
-864
-717
-495
-680
-856
-765
-431
-609
-795
-503
-455
-645
-455
36
-149
-1144
-371
-44
-210
-640
-246
311
434
110
-20
194
52
-269
-390
-227
-246
-526
-402
-226
-433
-575
-559
-1057
-1210
-752
-691
-877
-806
-473
-338
-780
-838
-714
-668
-545
-506
-414
-582
-835
-849
47
219
-39
-91
447
718
-277
-593
-336
268
-16
-385
-190
144
232
-445
-733
-718
-330
-359
-512
-501
-384
-345
-299
-271
-410
-905
-745
-653
-414
-736
-745
-683
-329
-89
72
46
56
106
-10
-93
-3
403
488
635
1590
2004
2082
1984
2254
2525
2060
1439
870
125
-312
-961
-2129
-2065
-1686
-1632
-1559
344
471
-30
32
94
-85
-257
-260
-144
-79
-155
-142
9
336
237
13
-105
-47
-105
-276
-139
-9
-250
-251
20
183
-223
-533
-71
101
-105
-478
-260
-18
-159
-292
146
826
184
573
453
561
320
387
1216
1231
913
683
939
1063
525
354
499
960
870
679
909
1142
1076
364
380
703
837
488
275
263
180
-339
-235
-32
-356
-658
-306
-116
-253
-719
-732
-694
-478
-323
-366
-938
-683
-674
-895
-1341
-870
-910
-500
-271
-701
-825
-684
-436
-554
-586
-76
109
64
-114
8
100
-294
-481
-405
-17
-109
-298
-230
-37
105
218
145
-42
-47
309
557
401
33
212
235
111
25
-133
-465
-367
-109
58
-71
-64
380
374
143
-17
211
374
188
135
272
656
641
477
187
215
313
292
166
148
695
907
819
203
138
-270
121
313
568
675
318
296
541
913
727
484
519
576
457
-9
-189
-352
-429
-198
41
-245
-500
-436
164
92
-171
28
477
806
1045
1288
1595
2009
2229
2499
56
-1947
-2086
-2210
-4141
-4718
-4436
-3898
-4566
-5235
-4826
-4473
-4645
-5643
-5796
-5700
-5508
-5909
-6243
-6149
-6067
-6660
-7199
-7658
-8358
-8729
-9001
-8859
-8730
-8865
-9508
-9523
-9348
-9476
-9671
-12220
-16110
-13842
-13726
-10168
1843
15608
14352
4765
4629
22139
19105
6747
-7370
-3990
-1232
-3630
-3824
-1500
4503
5698
1915
-2375
-4766
-3047
-557
2805
3789
1878
-706
-2461
-1104
-222
-3075
-1196
-4589
2284
9800
13402
-300
-7823
-9446
27
2852
2039
-8308
-10916
-6280
19188
28752
30116
15296
6362
-405
4244
14841
24422
4868
-3644
6706
17651
23005
10475
964
-3071
9995
17258
6505
8710
1198
-1559
10762
18641
18633
6222
5546
7355
5595
6979
12168
13537
6393
1879
9386
10739
6055
603
8007
18376
27212
22157
12860
-4231
-4946
794
22233
20473
7872
2924
1542
9864
7473
8523
11285
10810
9079
6815
7346
7941
7032
