ECG_Raw
-1887
-1278
-835
-752
-463
-1198
-617
-308
-962
-1366
-204
292
155
-228
72
-395
-534
404
-238
-242
32
387
171
-143
-300
-182
-108
-76
-45
-41
199
450
552
240
239
385
130
-287
-342
-12
-249
-512
-201
162
190
102
342
2566
3247
2642
2242
1935
1821
1853
1687
1248
1337
1491
1329
1176
1097
904
728
570
121
-261
-685
-1433
-1580
-1511
-1182
-1099
-957
-516
-658
-1469
-1955
-3147
-3241
-2347
-2164
-1987
-1575
-1287
-934
-464
-585
-866
-760
-86
651
920
609
529
1213
1427
1324
886
896
1119
1743
1697
1336
953
1267
1539
1089
886
985
1032
725
442
-61
615
-755
-518
-293
-519
-506
91
131
3
-19
43
64
-53
-276
-527
-198
186
203
-566
-540
-318
-931
-1545
-1716
-1243
-1298
-1388
-468
71
165
-237
-84
250
385
-81
-276
-326
-226
-140
-396
-612
-905
-1378
-1957
-2098
-1727
-1586
-2180
-2224
-1946
-2010
-2572
-2972
-2569
-2368
-2481
-2429
-1933
-1426
-1310
-1545
-1660
-1364
-1271
-1458
-2091
-1989
-892
-810
-371
-237
-583
-1423
-1146
-686
-858
-1120
-996
-358
-428
-548
-423
-117
55
-43
-277
-216
-288
-814
-868
-753
-674
-731
-817
-797
-656
-763
-959
-1108
-1149
-1129
-1115
-1136
-1164
-1170
-1150
-1839
-1394
-824
-336
-483
-808
-1134
-1321
-1375
-1457
-1719
-2072
-2216
-1986
-1646
-1633
-2002
-2272
-2008
-1399
-1073
-1326
-1777
-1840
-1467
-1118
-1117
-1298
-1346
-1225
-1160
-1241
-1293
-1209
-1144
-1273
-1544
-1659
-1160
-1011
-1080
-1186
-1165
-1051
-1985
-2118
-2893
-3113
-2903
-2430
-2112
-2193
-2522
-2737
-2631
-2308
-2078
-2127
-2381
-2596
-2629
-2523
-2412
-2343
-2229
-2058
-1980
-2156
-2526
-2771
-2336
-2909
-2929
-2616
-2247
-2089
-2157
-2298
-2454
-2683
-2962
-3148
-3152
-3058
-2977
-2933
-2097
-1641
-1370
-1170
-903
-609
-311
-58
143
341
638
1127
1782
2485
3115
3575
3836
3934
3948
3934
3804
2466
1271
25
-1106
-2120
-3062
-3911
-4600
-5107
-5470
-5645
-5536
-5118
-4581
-4196
-4070
-4110
-4194
-4076
-4183
-4143
-3295
-3908
-3215
-2375
-2151
-2605
-3066
-2934
-2312
-1844
-1997
-2570
-2391
-2074
-2232
-2689
-2976
-2805
-2387
-2216
-2517
-2946
-3013
-2653
-2325
-2485
-2988
-3292
-3109
-2768
-2779
-3152
-3432
-3286
-2883
-2625
-2631
-2677
-2608
-2500
-2436
-2344
-1884
-1646
-1976
-1835
-1601
-1612
-1627
-1479
-1355
-1432
-1643
-1740
-1597
-1353
-1176
-1092
-968
-727
-481
-376
-448
-564
-571
-434
-272
-246
-418
-662
-764
-601
-308
-136
-247
-559
-850
-933
-820
-684
-698
-891
-1107
-786
-328
-69
-175
-489
-848
-1024
-1515
-1675
-1571
-1400
-1411
-1611
-1738
-1652
-1535
-1679
-2083
-2395
-2323
-2026
-1966
-2375
-2966
-3249
-3072
-2783
-2795
-3150
-3551
-3694
-3568
-3417
-3437
-3891
-4115
-4257
-4267
-4109
-3834
-3638
-3708
-3971
-4101
-3899
-3535
-3371
-3550
-3821
-3901
-4009
-3844
-3796
-3871
-3936
-3767
-3397
-3180
-3386
-3841
-4080
-3913
-3629
-3639
-3989
-4304
-4287
-3701
-3585
-3573
-3511
-3369
-3225
-3172
-3216
-3318
-3413
-3432
-3364
-3295
-3329
-3505
-3698
-3757
-3625
-3441
-3381
-3450
-3482
-3352
-3086
-2810
-2623
-2538
-2531
-2570
-3506
-3259
-3213
-2979
-2676
-2778
-2808
-2744
-2776
-2981
-3205
-3273
-3178
-3059
-3030
-3085
-3133
-3097
-2975
-2811
-2679
-2674
-2772
-2810
-2684
-2491
-2463
-2662
-2896
-2950
-2833
-2796
-2981
-3210
-3191
-2880
-2541
-2482
-2732
-3002
-2726
-2398
-2277
-2457
-2722
-2457
-2309
-2521
-2909
-3039
-2760
-2410
-2429
-2852
-3245
-3181
-2729
-2368
-2501
-2985
-3269
-2990
-2353
-1934
-2034
-2448
-2731
-2724
-2639
-2714
-2906
-2968
-2828
-2703
-2812
-3005
-2618
-2168
-2111
-2485
-2856
-2837
-2539
-2424
-2715
-3132
-3236
-2983
-2752
-2610
-2688
-2513
-2323
-2548
-2817
-3005
-3115
-3214
-3287
-3246
-3107
-2962
-2892
-2859
-2771
-2625
-2496
-2441
-2307
-2211
-2246
-2452
-2647
-2614
-2390
-2282
-2508
-2898
-3045
-2750
-2294
-2179
-2549
-3013
-3111
-2800
-2489
-2508
-2729
-2821
-2689
-2578
-2672
-2797
-2775
-2751
-3093
-3081
-2944
-2879
-2900
-2823
-2608
-2588
-2788
-2765
-2522
-2375
-2549
-2857
-2932
-2703
-2488
-2523
-2698
-2751
-2647
-2604
-2720
-2825
-2695
-2381
-2199
-2350
-2650
-2758
-2601
-2413
-2463
-2699
-2849
-2777
-2613
-2539
-2537
-2480
-2362
-2376
-2809
-2725
-3034
-2146
-2437
-2596
-2290
-2093
-2187
-2454
-2669
-2742
-2762
-2841
-2963
-3027
-2961
-2826
-2764
-2779
-2738
-2528
-2239
-2128
-2295
-2537
-2587
-2444
-2365
-2553
-2877
-2961
-2090
-2330
-2620
-2584
-2246
-1983
-2077
-2416
-2654
-2622
-2518
-2559
-2671
-2617
-1884
-1733
-2027
-1928
-1933
-2173
-2369
-2167
-1660
-1335
-1509
-1937
-1778
-2219
-2211
-2205
-2194
-2126
-2094
-2202
-2456
-2465
-2670
-2912
-2921
-2651
-2379
-2364
-2472
-2415
-2124
-1860
-1867
-2080
-2232
-2198
-2101
-2089
-2115
-2058
-1919
-1706
-1742
-1613
-1366
-1443
-1520
-1444
-1248
-1120
-1245
-1576
-1834
-1751
-1317
-386
-38
525
1411
2356
3006
3343
3687
4275
4943
5298
5200
4916
4762
4674
4290
3416
2293
1281
406
-654
-2053
-3405
-4136
-4141
-3901
-3976
-4294
-4263
-3562
-2642
-2834
-3962
-3630
-3385
-3586
-3686
-3104
-2670
-2734
-3070
-3220
-3070
-2922
-3010
-3252
-3440
-3486
-3465
-3422
-3316
-3170
-3065
-3068
-3115
-3058
-2897
-2779
-2825
-2977
-3104
-3138
-3148
-3213
-3270
-3196
-3008
-2865
-2870
-2896
-2768
-2340
-2378
-2497
-2458
-2245
-2099
-2148
-2387
-2152
-1974
-2226
-2385
-2299
-2178
-2317
-2694
-2937
-2760
-2290
-1955
-1964
-2070
-1908
-1516
-1261
-1362
-1591
-1596
-1388
-1325
-1584
-1866
-1133
-1114
-1136
-894
-485
-317
-571
-943
-1035
-836
-690
-844
-1128
-1177
-889
-536
-424
-537
-440
-527
-575
-704
-662
-456
-372
-616
-995
-1122
-908
-704
-859
-1210
-1250
-819
-368
-437
-1375
-1247
-916
-993
-1572
-2101
-2069
-1654
-1443
-1681
-2039
-2124
-2017
-2095
-2462
-2803
-2840
-2712
-2747
-3001
-3186
-3064
-2730
-2505
-2555
-2754
-2919
-3003
-3070
-3187
-2854
-2979
-2839
-2451
-2268
-3119
-2837
-2510
-2601
-3064
-3379
-3228
-2878
-2804
-3065
-3207
-2901
-2350
-2027
-2069
-2182
-2091
-1881
-1828
-1980
-2140
-2209
-2306
-2521
-2672
-2557
-2264
-2114
-2242
-2381
-2193
-1753
-1474
-1585
-1585
-1509
-1535
-1830
-1633
-1378
-1557
-1826
-1971
-1847
-1536
-1319
-1439
-1816
-2066
-1888
-1478
-1296
-1559
-1989
-2139
-1910
-1586
-1480
-1635
-1872
-2016
-2028
-1971
-1932
-1997
-2157
-2295
-2290
-2121
-1915
-1728
-1723
-1736
-1739
-1689
-2083
-1837
-2011
-2178
-2158
-1982
-1829
-1798
-1809
-1767
-1682
-1686
-1841
-2029
-2097
-1966
-1725
-1560
-1582
-1710
-1726
-1529
-1243
-1149
-1386
-1810
-2127
-2177
-1929
-1924
-1979
-1959
-1818
-1625
-1483
-1422
-1410
-1418
-1432
-1433
-1410
-1396
-1469
-1647
-1844
-1921
-1873
-1617
-1337
-1159
-1029
-1010
-1139
-1317
-1420
-1382
-1274
-1246
-1396
-1641
-1744
-1414
-1487
-1844
-2128
-2006
-1594
-1311
-1378
-1592
-1676
-1638
-1658
-1730
-1658
-1404
-1255
-1430
-1721
-1693
-1260
-841
-842
-1217
-1558
-1554
-1295
-1062
-1052
-1266
-1517
-1589
-1420
-1206
-1431
-1341
-1448
-1805
-2024
-2019
-1942
-1920
-1895
-1787
-1604
-1415
-1255
-1138
-1125
-1242
-1390
-1419
-1293
-1206
-1308
-1514
-1584
-1427
-1230
-1226
-1407
-1550
-1482
-1295
-1262
-1733
-1277
-1784
-1809
-1621
-1459
-1469
-1427
-994
-1604
-1795
-1734
-1527
-1324
-1254
-1394
-1643
-1717
-1427
-968
-786
-1108
-1637
-1870
-1713
-1546
-1682
-1955
-1906
-1392
-808
-607
-813
-1039
-980
-745
-680
-976
-1427
-597
-977
-654
-807
-1402
-1381
-1346
-1464
-1678
-1808
-1772
-1721
-1855
-2132
-2244
-1980
-1531
-1313
-1521
-1908
-2029
-1746
-1376
-1307
-1580
-1892
-1934
-1691
-1398
-1264
-1319
-1437
-1503
-1467
-1357
-1287
-1513
-1618
-1574
-1449
-1390
-1498
-1695
-1809
-1770
-1635
-1500
-681
190
177
661
1585
2457
2904
3119
3616
4523
5349
5555
5211
4860
4818
4739
4092
2907
1762
1098
737
168
-823
-1913
-2684
-3295
-3480
-3587
-3606
-3661
-3789
-3819
-3560
-3113
-2835
-2920
-3166
-3166
-2860
-2595
-2666
-2985
-3181
-3049
-2788
-2709
-2847
-2256
-2520
-2540
-2619
-2666
-2736
-2814
-2819
-2694
-2503
-2373
-2248
-2105
-1999
-2108
-2397
-2607
-2514
-2226
-2070
-2178
-2314
-2180
-1801
-1563
-1731
-2100
-2202
-1885
-1524
-1591
-2092
-2534
-2468
-1950
-1511
-1521
-1826
-1996
-1787
-1418
-1226
-1254
-1279
-1149
-1617
-1455
-1228
-1049
-900
-825
-840
-918
-1012
-1054
-979
-840
-761
-791
-854
-834
-713
-606
-642
-756
-802
-706
-543
-449
-427
-367
-168
119
319
282
41
-227
-356
-252
12
254
275
-447
-160
219
240
-193
-661
-589
-225
-880
-1194
-1145
-986
-1089
-1471
-1814
-1870
-1730
-1669
-1825
-2119
-2392
-2579
-2674
-2645
-2518
-2404
-2447
-2637
-2798
-2759
-2523
-2318
-2358
-2662
-3027
-2867
-2663
-2626
-2709
-2732
-2559
-2229
-1960
-1895
-1944
-1944
-1887
-1925
-2181
-2476
-2485
-2108
-1777
-1618
-1975
-2232
-2236
-1806
-1199
-940
-1252
-1779
-1939
-1594
-1133
-1019
-1290
-1587
-1600
-875
-904
-1074
-1258
-1337
-1282
-1192
-1213
-1357
-1458
-1333
-1011
-728
-693
-848
-974
-963
-901
-951
-1120
-1256
-1257
-1188
-1183
-1289
-1408
-1043
-993
-786
-968
-1261
-1390
-1307
-1242
-1380
-1293
-1101
-1262
-1568
-1614
-1366
-1248
-1546
-2000
-2142
-1928
-1738
-1813
-1903
-1688
-1295
-1122
-1239
-1308
-1108
-906
-1048
-1452
-1679
-1524
-1262
-1213
-1297
-1254
-1117
-1175
-1506
-1774
-1714
-1153
-1360
-1612
-1643
-1691
-1819
-1909
-1828
-1656
-1604
-1719
-1852
-1880
-1894
-2010
-2186
-2300
-2278
-2181
-2070
-1903
-1649
-1437
-1430
-1623
-1801
-1765
-1562
-1397
-1427
-1608
-1798
-1872
-1809
-1489
-1517
-1738
-1962
-1900
-1529
-1153
-1139
-1487
-1816
-1875
-1607
-2021
-2124
-1926
-1924
-1659
-1610
-1454
-1239
-1179
-1373
-1669
-1804
-1719
-1604
-1645
-1818
-1905
-1759
-1501
-1397
-1527
-1726
-1459
-1440
-1506
-1500
-1334
-1108
-1015
-1185
-1564
-1939
-2111
-2061
-1964
-2039
-2268
-2397
-2193
-1448
-1512
-1618
-2036
-2115
-1912
-1486
-1139
-1163
-1531
-1845
-1748
-1346
-1073
-1226
-1637
-1850
-1685
-1370
-1487
-1461
-1365
-1354
-1446
-1495
-1437
-1375
-1474
-1761
-2063
-2156
-1991
-1747
-1669
-1828
-1994
-1879
-1503
-1213
-1286
-1578
-1659
-1366
-1050
-867
-1587
-1194
-1177
-1579
-1960
-1914
-1615
-1511
-1621
-1160
-643
-668
-1286
-1844
-1763
-1211
-894
-1214
-1820
-2037
-1666
-1162
-1034
-1290
-1529
-1473
-1281
-1283
-1515
-1685
-1592
-1397
-1372
-1491
-1436
-1031
-559
-485
-853
-1220
-1164
-854
-816
-1678
-1678
-1591
-851
-895
-747
-761
-858
-793
-558
-456
-671
-956
-914
-468
-11
-3
-452
-932
-1032
-758
-486
-513
-851
-1236
-1440
-1435
-1318
-1196
-1114
-1090
-1182
-1363
-1516
-1521
-1406
-1504
-1628
-1612
-1459
-1350
-1414
-1553
-1537
-1298
-1057
-1260
-1553
-1830
-1559
-1377
-1514
-1758
-1736
-1409
-1106
-1131
-1345
-1404
-1211
-1023
-1066
-1233
-1286
-1165
-1069
-1108
-1138
-628
-360
-270
-229
-55
293
738
1200
1645
2100
2627
3312
4188
5085
5707
5923
5935
5997
5936
5301
4335
2883
2390
-2001
-3356
-2675
-2358
-2263
-2015
-1709
-1438
-1460
-1756
-2101
-2330
-2373
-2385
-2893
-2889
-2617
-2195
-2165
-2018
-1749
-1624
-1784
-2020
-1750
-1596
-1831
-2412
-2026
-1405
-1083
-1271
-1670
-1850
-1710
-1523
-1572
-1817
-1376
-765
-1152
-1637
-1425
-994
-876
-1321
-1289
-1050
-860
-854
-713
-526
-524
-763
-1015
-866
-748
-857
-1181
-1028
-695
-86
3
-78
-234
-313
-250
-143
-298
-435
-390
-63
-62
-106
-78
14
49
-73
910
703
456
516
1051
814
261
441
831
543
330
367
647
652
604
343
246
383
1019
889
414
-29
103
-7
-822
-879
-643
-635
-981
-1214
-1101
-1124
-1359
-1887
-1822
-2086
-2269
-1571
-1380
-1652
-2032
-2087
-1806
-1609
-2322
-2166
-1845
-2013
-2216
-2151
-2021
-2045
-2416
-2354
-2010
-1474
-1757
-2153
-1982
-1698
-1825
-2621
-2375
-1727
-1277
-1520
-1503
-851
-982
-1281
-1583
-1057
-1199
-1369
-1059
-1003
-1304
-1780
-1446
-1022
-953
-1062
-1050
-990
-986
-998
-977
-1204
-1515
-1672
-1184
-1036
-928
-1227
-1315
-1109
-1278
-1459
-1301
-1030
-841
-901
-1260
-1256
-1554
-1581
-1061
-641
-643
-937
-1103
-901
-244
-422
-923
-1373
-1043
-772
-1274
-1449
-1209
-764
-976
-1132
-724
-649
-795
-937
-876
-884
-1102
-1193
-1228
-1172
-1027
-946
-1061
-1292
-1357
-1094
-1174
-689
-483
-528
-745
-665
-275
-78
-913
-817
-656
-883
-1129
-1284
-1219
-974
-341
-506
-962
-1266
-1091
-652
-448
-668
-1015
-1118
-949
-747
-763
-667
-568
-746
-834
-697
-489
-499
-802
-1562
-1050
-596
-565
-401
-447
-712
-1230
-1192
-1535
-1650
-1460
-684
-618
-796
-828
-557
-413
-862
-933
-711
-557
-932
-1256
-1160
-1162
-1377
-1587
-1526
-1207
-886
-692
-623
-535
-846
-1171
-1355
-665
-1162
-1071
-661
-609
-1040
-1122
-138
-97
-599
-1072
-628
-272
-647
-882
-898
-727
-694
-731
-1049
-1108
-985
-875
-998
-1263
-1353
-1012
-1141
-1392
-1004
-754
-920
-1148
-691
-384
-725
-1174
-1321
-1223
-416
-363
-696
-870
-404
-82
-847
-1346
-1372
-570
-517
-742
-869
-665
-359
-323
-620
-915
-903
-695
-678
-956
-1173
-981
-476
-135
-229
-532
-627
-383
-114
-160
-491
-765
-688
-331
-39
-80
-400
-310
-168
-285
-473
-463
-322
-260
-369
-552
-676
-746
-861
-1029
-1150
-1186
-1187
-1198
-1184
-1129
-1079
-1104
-1142
-1026
-742
-538
-692
-1141
-1502
-1458
-1100
-813
-838
-1038
-1105
-937
-1263
-569
-235
-199
879
1390
1747
2061
2525
3225
4040
4700
5010
5065
5606
6098
6188
4664
3781
3217
1937
811
-355
-1174
-1579
-1804
-2099
-2755
-2724
-2458
-2144
-2201
-2156
-1591
-1414
-1483
-1859
-2072
-1533
-1379
-1527
-1698
-1838
-1808
-1739
-1716
-1765
-1686
-1185
-1137
-1307
-1499
-1376
-1346
-1475
-1558
-1389
-1080
-1037
-1157
-985
-514
-854
-1415
-1574
-1279
-1226
-1522
-1213
-699
-946
-1103
-1099
-108
-256
-501
-376
-179
-221
-933
-1062
-833
-451
-239
-328
-553
-291
138
368
-24
-181
-51
265
458
346
22
-199
6
169
152
243
412
371
300
478
1024
865
529
746
663
-90
-191
-626
-318
-141
-278
-649
-922
-908
-772
-1217
-1625
-1779
-1414
-1354
-1441
-1557
-1633
-1853
-2371
-2475
-2541
-2705
-2695
-2605
-2342
-2195
-2121
-2336
-2494
-2581
-3027
-2945
-2292
-2526
-2419
-2265
-2405
-2369
-2190
-2360
-2709
-2782
-1979
-1931
-2346
-2771
-2273
-1739
-1780
-2029
-2039
-1802
-1935
-2165
-2237
-2166
-2276
-2720
-2503
-1991
-1716
-2169
-2456
-1691
-1300
-1994
-1966
-1359
-1795
-1462
-1729
-1813
-1734
-1463
-1579
-1805
-1642
-1284
-1134
-1522
-1545
-1379
-1486
-1738
-1750
-1238
-1237
-1410
-1514
-1430
-1083
-694
-1236
-1717
-1684
-1037
-1315
-1763
-1430
-966
-839
-1086
-942
-977
-970
-804
-602
-555
-721
-941
-928
-874
-1071
-1744
-1659
-1271
-637
-627
-661
-580
-451
-374
-814
-1176
-966
-820
-702
-542
-592
-830
-944
-761
-479
-699
-906
-860
-771
-960
-986
-437
-558
-1004
-1302
-1108
-650
-455
-1115
-1216
-958
-519
-577
-653
-720
-770
-740
-653
-871
-1130
-1165
-915
-651
-669
-717
-743
-819
-1000
-820
-810
-961
-716
-384
-374
-1046
-1031
-855
-1338
-1647
-1545
-918
-995
-1149
-843
-643
-635
-731
-675
-650
-761
-835
-913
-983
-1026
-1034
-1039
-1080
-960
-755
-688
-820
-434
-488
-954
-1292
-1432
-1238
-1146
-1141
-1124
-898
-573
-422
-606
-692
-630
-596
-716
-887
-753
-624
-615
-501
-364
-324
-290
-101
3
-415
-524
-417
-389
-480
-370
-44
-228
-410
-1043
-417
-128
-214
-281
-257
-90
86
-15
-515
-1126
-1367
-731
-661
-920
-1126
-1022
-778
-712
-879
-1037
-1000
-862
-823
-893
-943
-881
-757
-629
-484
-376
-479
-870
-1356
-1587
-1435
-1138
-1003
-1072
-1139
-1027
-814
-645
-486
-264
-77
-338
-250
1012
1327
1497
1783
2267
2863
3444
3953
4430
4934
6198
6708
6788
6432
5981
5762
5676
4062
2485
1152
72
-412
-1167
-2259
-2238
-2061
-1833
-1695
-1523
-1543
-1712
-1756
-1580
-1364
-1635
-1920
-1504
-1401
-1733
-1592
-801
-886
-1241
-1026
-546
-425
-1138
-1216
-993
-822
-889
-820
-629
-789
-947
-699
-640
-1126
-758
-936
-1002
-941
-848
-802
-788
-713
-747
-914
-739
39
-29
83
46
117
545
552
303
-54
183
395
-245
-544
-344
381
247
90
609
747
522
198
374
506
506
666
893
1103
1117
1159
1210
1167
1090
1010
769
532
474
576
500
344
242
229
77
-400
-561
-696
-907
-911
-884
-911
-939
-978
-1288
-1478
-1537
-1313
-1344
-1587
-1993
-1850
-1621
-1666
-1933
-2185
-1879
-1260
-690
-822
-1152
-1302
-522
-929
-957
-519
254
-138
-798
-1072
-680
-501
-1197
-1352
-1061
-424
-602
-890
-885
-839
-946
-1001
-743
-492
-513
-594
-579
-374
-321
-371
-687
-699
-551
-351
-486
-642
-1060
-814
-869
-1072
-797
-573
-529
-511
-369
-302
-482
-448
-318
-344
-463
-480
-279
-187
-58
122
-161
-584
-400
102
218
-667
-597
5
381
-254
-806
-687
-579
-739
-988
-777
-178
-582
-560
-564
-754
-1185
-1179
-1112
-888
-611
-321
-125
-100
-31
-254
-616
-901
-926
-913
-933
-566
-251
-81
-282
-419
-468
-536
-681
-810
-690
-557
-585
-845
-730
-543
321
-311
184
245
-400
-569
-465
73
170
74
-135
49
277
56
-222
-300
-174
-252
-350
-346
-437
-584
-294
-1
-30
-737
-715
-362
-126
-394
-608
-379
-99
121
45
-201
-298
-331
-902
-868
-546
-235
-304
-298
-298
-415
-443
-392
-669
-1017
-734
-219
61
-248
-409
-425
-362
-430
-614
-1100
-1022
-669
-254
-419
-502
-86
-77
-320
-479
-305
-283
-748
-924
-582
-397
-344
-342
-232
-90
-249
-463
-549
-514
-581
-846
-852
-754
-459
-317
-198
-86
-56
-7
-101
-278
-462
-694
-755
-731
-452
-451
-608
-641
-353
-116
-282
-431
-125
-511
-103
-340
-599
-543
-188
136
196
86
67
215
385
437
419
469
622
767
637
492
435
472
509
480
374
282
308
444
575
585
475
323
194
85
-19
-150
-330
-566
-804
-915
-832
-662
-584
-643
102
-142
-142
-533
-441
-288
-312
-382
-383
-339
-355
-459
-525
-265
-133
-131
-154
-54
137
223
64
-188
-201
166
696
1025
1034
1031
1437
2327
3321
3959
4139
4225
4702
5697
6846
7631
7783
7493
7009
6821
2011
-1052
-1420
-1653
-1727
-1132
-1082
-723
-576
-701
-1195
-1150
-1002
-1082
-1199
-1187
-917
-828
-818
-996
-1081
-1068
-968
-946
-773
-48
22
-192
-240
23
42
-317
-716
-784
-532
504
-287
-206
-269
-538
-802
-850
-702
-333
-292
-346
-459
-348
-177
-144
-273
-330
-54
833
775
488
604
729
470
19
-140
137
472
277
303
703
1150
827
521
437
301
147
519
654
1160
338
1382
1263
975
1162
1454
1573
1214
982
861
1022
1168
1291
1378
1317
1213
1229
1347
1364
985
841
881
1036
1140
1055
804
529
651
652
-132
-374
-230
-169
-686
-1121
-1063
-484
-865
-1107
-1224
-1215
-1222
-1364
-1778
-1719
-1510
-1535
-1714
-1679
-1128
-1056
-1179
-1157
-1063
-1198
-1836
-1803
-1497
-1368
-1763
-2062
-1429
-1018
-1075
-1789
-1634
-1191
-1001
-1227
-1255
-873
-838
-1236
-1184
-961
-580
-481
-1041
-977
-683
-800
-1057
-1072
-913
-850
-944
-970
-720
-291
17
-32
-714
-708
-358
-206
-762
-1183
-560
-271
-468
-933
-813
-820
-1281
-1069
-673
-811
-1006
-728
-775
-868
-990
-422
-329
-598
-533
-673
-916
-768
-631
-800
-1032
-654
-303
-598
-675
-444
-306
-638
-826
-719
-979
-1371
-1151
-720
-558
-624
-595
-346
-81
2
29
-42
-1054
-1427
-857
965
732
1002
1279
1052
884
918
1121
1132
1193
1486
1522
1434
1145
987
845
776
846
928
1136
1207
1197
1054
996
841
428
605
1068
1500
1292
1188
1575
1673
1586
619
1039
631
762
966
925
911
520
557
1301
1236
623
-322
-49
317
157
-4
23
231
449
813
1027
591
216
700
1044
980
357
357
531
557
370
176
19
178
30
428
-86
36
154
-80
-53
156
245
49
-79
-134
-198
-236
-202
-227
-186
248
393
551
720
129
546
487
204
-18
10
164
168
-209
-143
126
18
-271
-487
-38
426
146
6
699
831
599
467
716
724
207
407
783
512
147
180
627
393
118
191
525
661
359
-103
-312
-212
-120
-324
-754
-1084
-1094
-873
-655
-565
-550
-446
-197
89
-438
-826
-723
-659
-603
-528
-446
-399
-402
-372
-253
-138
-190
-439
-666
-606
-273
-31
-284
-385
-145
248
501
595
768
1116
1514
1845
2233
2894
3804
4639
5194
5610
6141
6755
6991
6490
5930
5428
4861
4103
3216
-1190
-1888
-2240
-2060
-1438
-1148
-930
-764
-1141
-878
-811
-968
-1026
-771
-540
-667
-775
-756
-800
-928
-969
-891
-957
-1006
-746
-617
-625
-792
-799
-911
204
-460
-556
-106
579
433
338
386
356
136
-54
272
425
400
368
485
390
252
447
551
367
22
-150
48
728
610
232
19
303
514
429
522
756
859
701
675
643
1555
1877
1705
1276
1258
1346
1433
1323
1224
1560
1879
2013
1442
1084
931
922
755
547
727
984
1048
645
592
680
514
192
-81
-177
-102
65
221
47
-300
-578
-488
-430
-1104
-1695
-1619
-1631
-1651
-1367
-1200
-1207
-1384
-1298
-1224
-1627
-1839
-1811
-1638
-1828
-2006
-1196
-963
-1192
-1262
-763
-682
-931
-1263
-1427
-1532
-1511
-1367
-1210
-1148
-1162
-865
-534
-355
-902
-1163
-1025
-436
-686
-1131
-1249
-832
-248
-39
-585
-541
-142
461
253
-229
-1140
-1133
-912
-1196
-1702
-1900
-904
-423
-297
-407
-390
-765
-938
-910
-1142
-1090
-690
-294
-233
-406
-117
259
301
-430
-543
-372
-156
-299
-435
-318
-208
-199
-367
-430
-521
-677
-493
-173
-521
-502
346
238
-371
-977
-535
-126
-336
-354
-289
-249
-174
-37
11
-160
-433
-527
-342
-165
-412
-503
-26
-129
-460
-94
394
391
-257
112
688
282
-290
-375
62
-208
-528
40
435
424
104
261
370
-239
-450
-331
-370
-458
-196
-488
-609
-414
-188
-21
-102
-206
-165
191
212
104
-43
-127
-273
-220
16
38
-279
-661
-694
-359
-73
-380
-560
-100
19
-174
-517
-405
-333
-1016
-428
-238
-267
-318
-219
-29
99
22
-173
-494
-812
-910
-764
-600
-687
-575
181
315
213
65
-74
-270
-518
-611
-523
-638
-1069
-859
-444
-171
-183
-269
-234
-83
-135
-171
-383
-659
-526
-228
-248
-282
-323
-307
-205
142
231
233
139
121
145
150
42
-88
-171
-232
-334
-465
-509
-398
-209
-127
-209
-315
-258
-42
114
24
-296
-634
-781
-545
-511
-682
-958
-1128
-1085
-1119
-1116
-1181
-1047
-888
-865
-1030
-1268
-1385
-1280
-1015
-735
-582
-563
-583
-501
-309
-164
-258
-574
-850
-844
-623
-470
-504
-463
-10
799
1510
2009
2672
3476
4005
4202
4425
4986
5771
6407
6695
6813
6859
6710
5344
4366
47
-1708
-1782
-1643
-1540
-1394
-1258
-1122
-975
-860
-759
-1110
-1364
-1369
-918
-885
-953
-818
-707
-730
-808
-678
-528
-738
-1017
-1176
-930
-870
-1037
-1320
-1131
-917
-945
-914
-772
-151
-510
-116
-366
-728
-525
-365
-324
-203
-98
-205
-138
0
-315
-535
-448
-25
-129
-266
-125
-122
-208
-80
-23
-117
-51
202
239
-323
-307
16
482
467
453
615
746
-9
737
503
1082
1547
976
636
763
1347
1237
1067
1207
1183
952
778
926
884
141
115
485
1086
881
581
388
356
263
-308
-701
-960
-575
-196
-408
-588
-491
-1382
-1640
-1014
-993
-1505
-1524
-1484
-2175
-2679
-2807
-2027
-1821
-1976
-2111
-1635
-1143
-1629
-2267
-2569
-2128
-2019
-2090
-1973
-1797
-1761
-1766
-1528
-1283
-1422
-1570
-1501
-1181
-1309
-1572
-1721
-1592
-1092
-1254
-1218
-1190
-1214
-1164
-1036
-911
-764
-726
-755
-1165
-1424
-1545
-1394
-1320
-1285
-1157
-1017
-852
-783
-1027
-1301
-1100
-784
-733
-1072
-800
-293
-351
-829
-959
-287
-396
-883
-728
-574
-686
-716
-546
-648
-820
-639
-499
-595
-859
-680
-512
-878
-1055
-979
-749
-879
-509
-539
-884
-535
-573
-812
-903
-595
-357
-705
-617
-436
-603
-363
-543
-834
-810
-731
-667
-616
-554
-603
-604
-536
-727
-1032
-1207
-948
-887
-946
-722
-362
-148
-486
-596
-471
-402
-773
-1066
-537
-196
-256
-640
-318
128
-280
-218
-678
-411
-772
-818
-642
-421
-235
-211
-328
-398
-275
118
-17
-286
-416
-310
-289
-395
-361
-261
-9
61
20
-202
-137
-35
-304
-457
-337
67
-161
-483
-321
-88
-122
-140
-446
-305
-259
-298
-155
47
73
-136
-343
-317
-127
-146
-285
-266
-215
-338
-313
100
-25
-322
-34
435
627
238
189
300
291
78
-155
-329
-204
-25
14
-66
-59
-379
-221
-447
-104
-182
-412
-734
-638
-459
-482
-618
-627
-423
-498
-660
-703
-651
-669
-728
-787
-823
-806
-648
-344
-72
-36
-248
-465
-475
-339
-276
-418
-670
-848
-867
-743
-526
-269
-37
1972
4335
5271
6158
6813
6887
6497
6055
5780
5000
4117
3055
1122
270
-512
-1416
-1557
-1671
-1816
-1671
-1452
-1429
-1527
-1487
-1223
-1236
-1290
-1240
-1075
-928
-928
-1134
-1132
-1066
-1027
-1090
-1481
-870
-399
-190
-536
-551
-255
-252
-1039
-1004
-519
-58
-462
-735
88
350
-10
-954
-669
-175
-411
-838
-834
-135
-300
-696
-311
169
138
-465
12
721
426
-65
15
647
218
450
1182
857
720
768
927
1041
1053
930
932
995
1367
1490
1325
945
714
915
1389
1564
1337
1371
1873
1817
1667
1672
1558
1293
1090
1166
1133
1012
1121
1194
1300
1571
1839
1552
321
91
461
510
297
-34
32
-91
-1087
-1364
-1271
-1042
-1326
-1663
-1492
-1162
-1087
-1657
-1745
-1557
-1300
-1367
-1348
-1373
-1717
-2024
-1588
-1308
-1421
-1844
-1534
-1042
-949
-1374
-1705
-1847
-1746
-1936
-1649
-1620
-1614
-1394
-1227
-1073
-1132
-1442
-1747
-1623
-1472
-1504
-1298
-838
-495
-702
-767
-674
-908
-1181
-1206
-909
-1029
-1210
-970
-823
-920
-1280
-1149
-877
-789
-1105
-579
-405
-822
-597
-1206
-741
-241
-629
-937
-463
-307
-507
-965
-908
-869
-989
-927
-831
-945
-945
-794
-633
-624
-751
-860
-907
-965
-1050
-1074
-930
-1003
-1056
-548
-227
-777
-609
-333
-520
-584
-70
33
-80
-255
-394
-549
-714
-580
-329
-288
-709
-574
-204
-285
-775
-988
-235
-3
-149
-432
-577
-494
-310
-170
-257
-342
-107
170
352
217
125
-90
190
-228
-459
-467
-194
-405
-765
-669
-259
-55
-394
-467
-388
-393
-485
-477
-246
-249
-334
-221
49
278
82
-212
-298
-54
335
519
327
-175
-13
154
-388
-591
-402
-342
-381
-309
-248
-281
-331
-333
-351
-524
-441
-186
112
-56
-265
-252
-97
1
-15
-42
-22
192
295
266
81
-178
-314
-214
89
-50
-284
-195
-12
-47
-544
-603
-536
-641
-680
-603
-425
-789
-555
-185
-13
-188
-278
40
213
170
-102
-405
-507
-331
117
15
-161
-35
148
173
31
-127
-206
-267
-580
-612
-388
30
-114
-239
-74
269
386
87
-363
-528
-295
28
435
129
-46
-79
54
318
107
81
313
516
429
94
-224
-347
-336
-320
-308
-233
-131
-152
-364
-639
-774
-746
-727
-895
-1206
-1401
-1261
-837
-408
-257
-414
-645
-694
-540
-401
-465
-694
-884
-843
-605
-381
-401
-450
-495
-350
-17
366
596
627
727
1160
1862
2525
3006
3478
4127
4881
5472
5773
5948
6212
6544
6690
6476
5446
4926
4359
2728
1704
684
-848
-1268
-1587
-2149
-2125
-1790
-1214
-1348
-1416
-537
-273
-573
-1371
-1453
-1380
-1059
-614
-899
-1167
-731
-499
-572
-888
-814
-733
-782
-721
-592
-574
-656
-574
-21
58
-99
-278
-67
98
-220
-338
-221
33
-111
-262
-18
153
143
-60
26
533
403
728
678
531
745
946
928
737
894
1030
727
613
707
897
825
807
1041
1114
1119
1027
963
932
1053
1055
1007
1204
1337
1280
1088
1281
1506
1428
1421
732
24
-1048
-545
-1120
-1175
-1272
-2042
-2102
-1783
-1502
-1774
-1836
-897
-664
-908
-1483
-1371
-1223
-1440
-1572
-1509
-1213
-552
-1178
-1509
-1240
-1113
-1259
-1311
-857
-414
-537
-754
-768
-687
-747
-611
-582
-629
-633
-660
-834
-1104
-937
-783
-1201
-1312
-952
-161
-482
-873
-326
-130
-592
-1435
-933
-778
-665
180
305
-34
-481
-331
-248
-558
-703
-806
-855
-623
-298
-234
-406
-378
200
231
-64
-690
-630
-425
-309
-432
-505
-374
-303
-290
-381
-508
-648
-474
-257
-234
-261
-805
-763
-815
-798
-758
-722
-557
-511
-501
-475
-534
-637
-380
-35
109
-658
-457
87
-21
-242
-149
133
333
241
154
137
-47
-282
-420
-165
-106
-215
-138
157
-439
-546
-315
-245
-226
-56
-63
-168
-11
248
302
-162
-97
278
464
-29
-455
-159
5
-217
-534
-65
364
-227
-554
-372
-5
-450
-839
-311
-91
-254
-224
243
461
-270
-423
-387
-257
401
389
22
-252
118
395
-54
-311
-336
-371
-503
-508
-212
-220
-258
205
456
403
-62
90
135
96
173
445
490
482
317
137
7
193
306
568
292
217
392
450
-99
-401
-498
-414
-465
-527
-368
-169
28
54
-130
-329
-569
-697
-785
-569
-463
-548
-617
-363
-212
-888
-684
-223
-270
-315
-267
-226
-298
-445
-474
50
407
464
602
893
1273
1653
2084
2688
3520
4392
5051
5724
6059
6407
6321
5767
5094
3901
3283
2529
807
136
-382
-1351
-1666
-1695
-1743
-1828
-1092
-762
-793
-995
-791
-622
-704
-943
-1115
-904
-1032
-943
-974
-914
-484
-429
-587
-860
-825
-846
-1116
-1103
-961
-768
-703
-523
-302
-603
-959
-787
-513
-471
-595
-353
-54
-88
-289
-420
-455
-383
-258
-232
-330
-298
-253
76
-83
196
663
577
464
720
901
880
474
499
674
638
422
328
587
677
730
900
864
713
580
698
813
704
1247
1062
899
925
1296
1364
1186
751
615
534
385
407
506
418
-49
10
174
-192
-607
-848
-797
-817
-905
-926
-920
-943
-975
-1049
-1242
-1532
-1421
-1278
-1507
-1686
-1636
-1429
-1334
-1536
-1886
-1526
-1421
-1220
-1327
-1316
-1262
-984
-1000
-1031
-712
-653
-824
-1203
-1245
-1316
-1333
-1103
-876
-818
-842
-757
-510
-289
-284
-459
-642
-676
-594
-551
-859
-1060
-1022
-466
-519
-794
-893
-6
303
-229
-468
-601
-509
-360
-414
-457
-419
-416
-483
-702
-699
-600
-620
-758
-731
-456
-154
-101
-266
-103
222
277
-390
-487
-269
1
56
-131
-337
-157
37
5
-573
-692
-616
-345
-283
-307
-289
-773
82
110
-106
-185
-7
199
-47
-246
-306
-145
0
120
5
-33
117
338
363
111
-170
-79
-63
-293
-504
-260
-105
-377
-375
-177
-57
-254
-466
-634
-220
-35
-5
-125
-271
-491
-538
-606
-661
-667
-586
-428
-235
-87
-79
-242
-582
-513
-334
-112
-91
-86
-88
-37
62
93
-101
-280
64
454
614
39
-220
-381
292
183
-30
148
130
-673
-506
-527
-690
-640
-44
196
327
164
-43
-69
359
305
-21
-296
-294
-101
34
-129
-190
-188
-164
-111
-9
155
140
68
-47
7
-440
-279
-70
62
-64
-264
49
410
463
347
329
305
192
19
-335
-399
-340
-208
-83
20
143
249
124
-1
-23
-20
-165
-493
-688
-258
151
-135
-390
-285
243
13
-387
28
266
302
91
-15
42
131
163
149
139
174
260
414
578
601
396
121
85
393
701
585
115
-145
160
677
699
80
-506
-385
259
609
214
-462
-664
-282
91
-50
-528
-832
-768
-616
-647
-759
-686
-425
-210
-197
-300
-529
-441
-778
-525
-217
-170
-456
-788
-803
-462
-76
18
-225
-547
-646
-453
-134
37
-97
-452
-751
-717
-307
275
775
1113
1453
2003
2770
3577
4291
4936
5604
6249
6693
6864
6904
6981
7050
6846
5170
4169
3404
-925
-1133
-1554
-1237
-1527
-1129
-1193
-1445
-1434
-1259
-1262
-1340
-1047
-723
-818
-1022
-1052
-740
-713
-833
-1023
-897
-724
-542
-457
-336
-500
-692
-688
-303
-396
-662
-689
-465
-29
-474
-572
-758
-761
-169
-61
-145
15
178
53
-478
-322
28
207
180
322
590
773
772
625
444
345
430
680
869
676
616
1326
1477
1177
497
551
667
650
780
1059
609
485
588
689
1099
1423
1640
1416
1312
1430
1511
1207
982
1349
1494
1435
1580
1791
1798
1402
1427
1491
865
502
440
561
163
-441
-787
-388
-93
-255
-776
-1192
-1132
-302
-1699
-1319
-1359
-1513
-1275
-1469
-1822
-1859
-1404
-1634
-2048
-1970
-1675
-1621
-1765
-1541
-1296
-1482
-1665
-1669
-1505
-1573
-1648
-1468
-1300
-1188
-1021
-854
-680
-692
-865
-968
-1214
-1077
-1445
-1380
-1209
-1212
-822
-608
-587
-609
-458
-427
-942
-901
-525
-512
-1033
-1174
45
141
-453
-878
-177
317
-463
-678
-333
76
-322
-616
-261
-257
-554
-640
-393
-619
-940
-393
-573
-716
-162
-123
-509
-916
-687
-595
-889
-699
-320
-60
-116
-96
-292
-528
-562
-186
-257
-467
-396
-255
-296
-563
-613
-732
-890
-569
-157
-124
-339
-372
-1201
-732
-679
-719
-270
-140
-218
-110
81
35
-441
-418
-319
-598
-667
-475
-195
-355
-473
-301
-303
-389
-405
-385
-407
-245
-81
-129
-718
-763
-565
-445
-624
-684
-401
-428
-619
-475
-34
-135
-317
-454
-516
-679
-961
-927
-896
-900
-698
-430
-427
-534
-429
-153
-384
-662
-616
-603
-790
-782
-426
-233
-751
-855
-604
-252
-563
-892
-654
-483
-622
-472
-289
-526
-673
-290
-184
-358
-827
-709
-432
-280
-503
-718
-797
-759
-690
-607
-401
-376
-418
-297
-173
-230
-803
-872
-705
-519
-650
-712
-572
-367
-300
-408
-524
-377
-318
-830
-961
-539
-258
-412
-310
-219
-53
103
219
155
190
295
276
-3
-442
-739
-690
-404
-183
-491
708
-1
-264
-49
414
677
502
99
-136
-31
233
359
249
68
22
142
281
354
448
516
744
208
-341
-560
-352
-15
110
-7
-40
169
317
322
231
109
-14
-116
-159
-137
-132
-227
-367
-392
-219
50
185
78
-151
-267
-141
85
187
60
-132
-126
146
459
561
486
524
815
1149
1219
1048
1012
1420
4118
6430
6745
6851
6915
6467
5733
4786
3107
2392
1536
-472
-1145
-1426
-1454
-1406
-1338
-1226
-904
-767
-624
-252
-185
-278
-426
-240
-34
-303
-546
-504
-3
-87
-376
-541
-391
-300
-322
506
505
741
415
996
1286
1327
1112
838
722
950
834
512
551
1041
1750
1127
1623
1769
1543
1162
1485
1930
2126
1950
1889
2291
2441
2318
1841
1867
1999
1849
1709
1858
2637
2718
2543
2369
2464
2445
1920
1706
1664
1803
1863
1921
2076
2098
2043
1696
1122
1292
1163
515
346
292
112
-8
-137
-531
-651
-617
-576
-738
-863
-723
-652
-680
-734
-601
-372
-267
-589
-931
-922
-907
-1203
-1631
-1276
-862
-681
-493
-116
-27
-350
-1038
-862
-673
-598
-729
-1000
-784
-548
-757
-808
-534
-95
-419
-796
-519
-217
-271
-953
-913
-575
-269
-472
-646
-395
-209
-231
-747
-807
-594
-243
-530
-897
-680
-306
-241
42
-213
28
-67
-524
-498
-280
-206
-303
-175
305
139
-204
-402
-393
-512
-472
-204
-72
-449
-551
-514
-605
-676
-670
-756
-827
-684
-150
-206
-413
-423
-276
-210
-170
-148
97
-628
-340
-453
-562
-394
-409
-557
-447
-118
106
-180
-402
-433
-128
-173
-448
-815
-574
-238
-228
-500
-644
-423
-347
-345
-304
-324
-404
-233
50
202
-101
-182
-85
-346
-541
-372
-373
-499
-405
-271
-384
-522
-525
-189
-137
-210
-72
150
146
-516
-607
-483
-759
-1037
-900
75
45
-267
-97
266
291
-539
-775
-752
-531
-531
-537
-196
20
29
99
-701
-474
-371
-556
-601
-465
-19
-39
-277
-658
-546
-385
-522
-680
-652
-86
64
-13
-274
-212
-90
-129
-249
-307
-177
-170
-294
-520
-356
-132
68
12
185
113
145
268
312
161
55
-43
-15
140
237
209
268
359
236
99
-6
-210
-317
-403
-455
-273
21
-82
-469
-545
198
102
-392
-728
-551
-115
91
-48
-244
-281
-807
-322
-454
-439
-135
198
241
-49
-385
-487
-339
-134
-51
-96
-141
-62
142
398
643
868
1149
1530
2014
2563
3133
3687
4218
4736
5296
5873
6356
6592
6300
6120
6043
5238
4213
3073
1519
921
165
-1158
-1545
-862
-866
-1016
-866
-761
-778
-967
-1003
-985
-780
-700
-728
-973
-996
-932
-932
-966
-901
-626
-667
-802
-600
-253
-88
-674
-910
-781
-321
-510
-854
-714
-343
-154
-211
-94
-154
-1024
-89
-51
-390
-425
30
319
-16
-287
-423
-121
129
188
-86
55
383
555
399
393
446
183
-13
497
722
610
363
638
933
874
714
640
655
719
825
1162
1486
911
829
1082
1331
821
317
1073
1816
1948
993
1092
1599
1535
868
432
540
483
270
264
387
302
-195
-226
-170
-444
-586
-436
224
119
-310
-818
-744
-802
-1194
-1130
-1474
-1817
-1672
-1506
-1776
-1984
-1866
-937
-880
-1264
-1782
-1498
-1226
-1486
-1563
-1354
-1023
-1188
-1293
-895
-887
-1246
-1770
-1372
-869
-1177
-1719
-1885
-1148
-1039
-1271
-1384
-969
-794
-960
-726
-754
-711
-612
-787
-1062
-1208
-788
-527
-443
-592
-638
-679
-930
-1036
-1064
-1111
-1140
-1050
-545
-437
-522
-786
-692
-467
-264
-456
-729
-735
-476
-312
-738
-504
-169
-335
-497
-434
-488
-872
-932
-960
-1351
-1305
-828
-255
-788
-1332
-710
-211
-289
-1123
-1104
-853
-414
-312
-412
-1078
-996
-551
-380
-799
-915
-122
-173
-653
-1060
-724
-692
-787
-884
-770
-741
-774
-606
-609
-605
-407
-55
-170
259
-1
171
503
312
81
281
531
589
230
133
169
145
-31
-202
47
302
322
320
-475
-140
-541
-820
-411
-13
91
41
73
208
158
13
-126
-100
-72
-279
-350
-338
-387
-388
-268
-103
-187
-196
177
201
56
109
308
286
-291
-354
-272
-522
-779
-348
-197
-484
-633
-640
-532
-510
-436
-215
-216
-247
-38
54
47
122
227
211
6
59
129
-255
-444
-352
-64
-275
-543
-440
-279
-290
-383
-229
-68
-119
-202
-188
-324
-232
-523
-578
-83
124
137
184
484
813
824
548
339
317
410
460
391
299
343
556
786
630
351
205
222
223
59
-233
-452
-448
-328
-285
-387
-519
-553
-502
-452
-414
-307
-160
-118
-234
-327
-864
-619
-1089
-704
-155
19
-332
-822
-1029
-929
-799
-831
-945
-661
-544
-399
-203
-100
-238
-530
-645
-360
148
444
357
214
517
1388
2434
3158
3464
3703
4230
5026
5756
6131
6207
6213
6294
6150
5610
4863
302
-996
-1514
-1902
-1824
-1425
-1227
-1623
-1624
-1371
-1443
-1828
-1887
-1032
-1031
-1443
-1636
-1288
-1139
-1426
-1354
-1208
-1540
-1694
-1537
-1163
-1369
-1595
-1188
-765
-510
-651
-846
-907
-403
-250
-718
-931
-224
-63
-167
-503
-551
-505
-307
-399
-646
-712
-470
-357
-464
-623
-661
-605
-522
-374
-174
-273
-324
-68
452
171
-163
303
642
572
106
309
659
701
446
262
124
715
639
761
1330
1251
934
836
1064
1109
636
467
430
548
655
722
742
890
1092
1071
958
993
912
588
373
745
839
668
340
299
131
-455
-658
-857
-1252
-1252
-1042
-1389
-1564
-1693
-1791
-1668
-1610
-1626
-1474
-1275
-1170
-1255
-1193
-1038
-1012
-1154
-1213
-977
-930
-1041
-1343
-1281
-1082
-858
-948
-1009
-945
-1054
-1308
-1531
-1349
-1202
-1306
-1207
-951
-1026
-1366
-769
-543
-884
-918
-816
-1079
-1263
-1172
-1117
-1168
-327
-248
-746
-1330
-826
-430
-1144
-1376
-1077
-663
-1024
-1268
-836
-810
-1020
-941
-764
-885
-1304
-1010
-983
-812
-668
-573
-370
-328
-867
-1037
-1041
-1083
-1131
-1080
-857
-756
-594
-412
-603
-839
-756
-670
-786
-1123
-989
-741
-646
-794
-889
-862
-865
-870
-682
-608
-674
-738
-862
-820
-926
-722
-562
-481
-422
-393
-360
-376
-596
-935
-872
-410
-178
-931
-490
167
-195
-681
-911
-823
-822
-883
-803
-693
-563
-557
-533
-392
-340
-403
-857
-914
-912
318
-823
-1059
-737
-314
-638
-848
-220
60
43
-134
-74
-57
-306
-365
-348
-465
-530
-422
-5
-112
-444
-609
-244
63
-267
-575
-635
-183
-144
-298
-526
-442
-348
-629
175
64
-292
262
638
558
-187
-183
30
44
-167
-199
436
541
249
-267
-10
252
-265
-625
-676
-335
-227
-118
-17
-31
170
949
837
375
242
625
680
-90
34
418
581
171
13
-247
-250
138
370
-195
-440
-351
-82
-339
-772
-1297
-1187
-914
-413
-366
-415
-419
-305
-146
-104
-472
-586
-545
-453
-393
-310
-150
-10
-44
-230
-360
-278
-117
-121
-335
-676
-343
-139
-160
-152
-35
282
823
1416
1809
1967
2190
2834
3846
4734
5100
5067
5109
5505
6051
6377
-947
-1238
-881
-509
-809
-791
-512
-432
-477
-39
-80
-342
-579
-434
-392
-604
-484
-233
32
227
560
605
191
-82
-28
142
154
-20
-200
-180
-203
-17
207
327
225
267
465
1066
1208
1040
410
500
776
671
734
1232
1243
733
593
596
738
743
651
454
692
1210
1712
1272
763
1078
1586
1705
964
884
1172
1610
1445
1234
1284
1399
1422
1401
1504
1634
1654
1588
1561
1580
1518
1483
1586
1739
1490
1224
1268
1304
1140
759
725
692
593
681
753
278
-107
-341
-384
-420
-601
-1181
-1252
-1116
-1044
-1251
-1418
-1363
-1365
-1454
-1493
-1421
-1356
-1443
-1606
-1701
-1414
-1073
-1188
-1258
-1282
-1193
-1022
-890
-1103
-1343
-1401
-1297
-964
-1458
-1225
-2026
-2238
-1908
-973
-1124
-1444
-906
-379
-321
-1232
-1305
-972
-476
-641
-832
-547
-222
-930
-308
-240
-1005
-671
-479
-587
-828
-920
-825
-730
-856
-825
-672
-635
-737
-669
-209
-229
-390
-335
-216
-271
-495
-383
-251
-540
-46
44
-230
79
337
141
-934
-973
-673
-461
-574
-506
-113
-141
-216
-17
6
-203
-639
-542
-324
-86
-128
-190
-166
4
262
382
-149
-385
-290
88
-117
-430
-354
-104
-231
-70
-87
-179
-164
180
193
57
-262
-319
-269
177
311
163
-241
43
476
347
-54
-210
76
40
-110
-136
-102
-147
-160
-48
46
81
34
-32
81
358
633
2
-260
-523
-234
211
-56
-454
-346
98
339
-174
-307
-71
246
-184
-737
-806
-457
-289
-492
-378
-11
404
622
581
365
1
38
169
227
169
189
350
226
8
-117
-78
231
-237
-386
-388
-168
143
12
-37
305
252
-42
-402
-325
-246
-108
88
290
398
404
339
226
-165
-298
-283
-22
100
206
266
191
123
162
135
15
-70
94
267
450
489
612
467
413
577
846
1002
914
687
489
398
385
417
530
687
732
526
155
-124
-138
-36
-80
-339
-544
-324
-203
-299
-435
-387
-195
-123
-337
-675
-827
-672
-393
-237
-278
-381
-366
-180
74
222
213
163
197
111
-370
-285
162
736
1181
1438
1597
1780
2066
2508
3028
3680
4074
4892
5800
6350
6472
6578
7008
7549
7670
6336
5774
5446
3795
2485
1515
724
140
-554
-699
-410
-460
-863
-493
-26
300
-384
-209
-167
-297
-426
-526
-376
-301
-397
-447
-166
43
-127
-77
166
253
40
-43
125
58
-71
107
383
549
388
343
472
646
356
17
151
373
362
87
187
337
517
715
700
627
846
1099
1153
665
723
1059
1073
646
475
1078
1124
919
1124
1454
1450
809
889
1210
1230
927
851
1485
1614
1456
1199
1295
1009
2233
1755
1793
1862
1845
1134
1028
1216
1176
892
806
1098
1012
829
776
677
302
-445
-441
-353
-606
-774
-805
-842
-947
-952
-640
-703
-1011
-1318
-1050
-815
-1372
-1782
-1016
-726
-1231
-1500
-1522
-1500
-1597
-1536
-1063
-1077
-1213
-995
-858
-1048
-1576
-1310
-918
-1213
-1526
-1387
-595
-790
-1227
-1067
-668
-629
-1218
-1110
-774
-767
-1019
-1040
-471
-372
-472
-457
-818
-706
-683
-648
-569
-461
-319
-358
-475
-665
-690
-767
-962
-788
-449
-366
-655
-713
48
105
-259
-612
-240
38
-405
-576
-455
-221
-287
-275
-171
-334
-517
-423
-410
-265
-265
-508
-789
-960
-953
-979
-992
-428
-27
122
-219
-284
-214
-298
-517
-725
-852
-666
-294
239
79
-155
9
199
160
-472
-737
-889
-824
-555
-286
-453
-698
-685
-495
-209
-401
-319
-317
-430
-414
102
264
135
-348
-182
179
372
218
-53
-81
510
543
353
227
243
55
-559
-598
-459
-340
-445
-485
-147
-107
-345
-777
-624
-424
-429
-306
85
-258
-130
-29
73
175
80
14
231
149
-125
-210
-42
-93
-397
-173
-14
-767
-945
-575
-34
-440
-800
-229
119
96
-392
-475
-493
-609
-594
-477
-273
-325
-375
-101
-379
19
282
91
-76
57
610
490
116
-374
-304
-191
-276
-416
-452
-244
-208
-257
-172
-68
-82
-362
-385
-319
-245
-169
17
367
315
166
381
555
341
211
341
441
814
841
707
532
529
389
120
-56
18
231
321
199
41
-2
17
-40
-206
-356
-411
-422
-447
-454
-337
-78
180
248
55
-253
-404
-229
138
317
66
-386
-117
404
440
-80
-611
-607
-157
168
-108
-112
-59
-78
-37
160
406
531
556
664
920
1175
1331
1530
2029
2821
3607
4113
4453
4975
5789
6587
6985
6927
6471
6325
6067
4797
3830
2791
1057
413
-253
-949
-1491
-1692
-1636
-1458
-1281
-929
-542
-677
-516
-1217
-1315
-1289
-1273
-1028
-738
-575
-803
-707
-619
-823
-625
-313
-51
16
36
160
164
-220
-284
-193
-96
-132
-161
-211
-81
283
967
851
604
504
777
867
757
599
532
627
794
860
870
1012
1330
1382
1480
1623
1396
1036
754
861
926
962
1134
1369
1596
1615
1647
1540
1395
1369
1806
1852
1612
1239
1457
1688
1369
1109
1253
1552
1198
1397
1726
1577
1237
1206
1836
1726
1216
514
608
737
654
482
250
-21
171
372
-148
-519
-488
189
138
-162
-401
-463
-511
-720
-1172
-1108
-1328
-1375
-1197
-1295
-1453
-1118
-910
-1188
-1275
-1127
-890
-1094
-1326
-1121
-834
-697
-959
-1045
-1002
-943
-1049
-1155
-1051
-946
-910
-1061
-1099
-994
-510
-466
-639
-829
-689
-634
-900
-836
-606
-456
-459
-202
-578
-757
-723
-707
-546
-290
-58
-280
-658
-942
-845
-787
-929
-1007
-566
-126
-382
-575
-348
124
-305
-810
-506
-41
124
-13
-239
-443
-642
-751
-538
-415
-951
-984
-504
-436
-1215
-883
-790
-932
-621
-248
-384
-521
-445
-481
-639
-567
-90
-148
-233
132
155
-124
-477
-305
-183
-448
-515
-387
59
121
-6
-451
-452
-308
-167
-151
-171
-338
-532
-690
-138
-218
-311
-463
-709
-552
-266
-74
-184
-197
129
78
-214
-684
-584
-412
-304
-181
115
419
144
-117
84
98
-250
-858
-527
-45
-130
-579
-802
-393
-250
-348
-126
169
86
-98
-231
-211
-229
-386
-471
-572
-617
-407
-142
-311
-604
-558
322
267
-212
-492
-120
39
-285
-174
24
-209
-291
-99
-41
-319
-347
170
13
-368
-314
-27
-355
771
122
67
-55
133
299
366
606
908
674
427
587
646
491
356
603
762
326
94
54
-72
-383
-654
-526
-354
-302
-299
-195
-151
-324
-645
71
178
-96
-432
-485
-250
-10
-72
-29
-69
-230
-368
-341
-206
-159
-230
-255
-108
157
375
499
637
877
1187
2875
4094
5367
5882
6319
6469
6530
5623
4871
4356
3675
2876
-492
-2071
-1459
-1279
-1206
-729
-349
-151
-767
-900
-1002
-1083
-1229
-1511
-1376
-985
-402
-590
-808
-411
-127
-148
-514
-500
-507
-873
-826
-572
-474
-598
-510
-10
33
35
-456
-413
-359
-409
-175
338
701
-10
-283
3
542
140
-251
133
319
183
105
452
753
854
924
1070
1098
924
690
198
170
352
646
641
813
1628
1682
1408
1126
1294
1054
1263
1093
1094
1223
1678
1796
1721
1424
1623
2005
1942
1492
1306
1981
2140
1990
1706
1648
1451
1007
975
875
183
17
168
517
372
214
469
605
522
197
143
-3
-1256
-1254
-1492
-1533
-1003
-947
-1212
-1484
-1272
-1187
-1551
-1547
-1383
-1534
-1795
-1904
-1811
-1810
-1814
-1894
-2051
-2098
-1477
-1279
-1430
-1644
-1247
-836
-1028
-1264
-1259
-1058
-1121
-1158
-886
-736
-956
-846
-1188
-847
-414
-453
-688
-706
-641
-872
-1092
-1128
-1019
-927
-897
-845
-876
-909
-558
-430
-656
-1234
-851
-238
1
-343
-841
-1002
-504
-525
-726
-879
-912
-949
-815
-454
-124
-153
-442
-1303
-545
-587
-1123
-1002
-754
-1025
-1287
-1237
-856
-983
-1135
-636
-366
-419
-742
-653
-592
-991
-1066
-863
-420
-530
-677
-593
-283
-73
-247
-1010
-876
-457
-320
-657
-811
-317
-177
-641
-899
-777
-774
-968
-1030
-727
-527
-580
-717
-665
-445
-540
-865
-1000
-706
-699
-781
-390
-45
22
-209
-458
-477
-365
-859
-1362
-1588
-1169
-1065
-1151
-1003
-612
-252
-115
-195
-320
-281
-568
-124
-394
-280
-125
-312
-433
-310
-75
110
-211
-327
-667
-117
318
260
-204
124
409
-647
-1119
-903
-282
-629
-903
-12
331
129
-628
-663
-541
-207
-147
-447
-702
-523
-324
-288
-408
-314
-155
-114
-244
-430
-522
-427
-438
-529
-562
-438
-337
-371
-546
-762
-869
-543
-310
-208
-246
-146
13
-133
-412
-566
-393
-385
-461
-263
-170
-246
-164
-206
625
434
-66
-105
288
366
-506
-713
-564
-333
-274
-360
-357
242
450
453
458
657
944
974
600
113
-72
146
474
594
469
257
63
-121
-239
-175
4
38
-228
-135
-710
-836
-958
-1033
-1024
-913
-721
-534
-465
-502
-473
-292
-89
-116
-432
-780
-865
-686
-517
-603
-859
-1035
-993
-833
-765
-795
-757
-534
-200
16
-22
-195
-298
-238
-121
-83
-100
-18
281
737
1198
1612
2080
2714
6345
7055
6559
6024
5384
3862
3003
2069
114
-562
-856
-938
-1154
-1633
-2093
-1748
-1371
-1456
-2139
-1858
-1290
-1184
-1524
-1617
-1293
-1321
-1377
-1220
-1299
-1511
-1357
-1042
-950
-1278
-1289
-1214
-1147
-1047
-1059
-247
-85
-156
-138
-303
-557
-492
-315
-313
-86
467
891
441
281
576
910
408
-102
116
463
614
656
795
959
1070
1115
1096
993
605
460
438
592
567
446
1270
1763
1799
1680
1626
1510
1327
1497
1617
1631
1622
1623
1746
1830
1814
1647
1756
2015
2183
1930
1681
1722
1798
1687
1353
1563
1916
1858
1547
1489
1761
1474
1041
1128
1318
1021
363
424
142
-134
-236
-389
-727
-869
-672
-867
-1035
-1054
-798
-720
-773
-1169
-1266
-1176
-835
-840
-924
-895
-878
-994
-1292
-1273
-1217
-1511
-1737
-1757
-1046
-698
-613
-691
-1095
-724
-627
-620
-657
-737
-839
-827
-852
-1092
-1051
-981
-962
-864
-739
-843
-904
-509
-381
-490
-715
-592
-494
-647
-683
-667
-737
-680
-510
-477
-600
-543
-58
-155
-140
-510
-431
-638
-658
-513
-801
-1105
-629
-376
-628
-841
-254
-426
-804
-885
-768
-887
-902
-467
-464
-609
-329
-79
-209
-1066
-969
-493
-86
-320
-426
-22
3
-212
-975
-543
-999
-878
-118
-161
-506
-703
-449
-356
-795
-877
-788
-854
-971
-934
-633
-665
-786
-793
-694
-591
-340
-245
-252
-485
-592
-668
-746
-722
-676
-492
-296
-122
-269
-493
-741
-694
-700
-550
-479
-675
-718
-665
-524
-442
-362
-437
-472
-378
-206
-357
-494
-429
-558
-773
-736
-512
-27
-262
-735
-1256
-971
-598
-718
-950
-872
-666
-883
-439
-424
-966
-829
-419
-489
-984
-1145
-261
-147
-485
-961
-766
-649
-1018
-1079
-980
-704
-477
-160
-90
-425
-690
-618
-501
-429
-558
-854
-1073
-367
-3
-260
-1269
-831
-490
98
-84
-49
2
296
334
211
205
389
359
-334
-466
-369
-372
-520
-530
-327
-438
-633
-499
-233
-148
-698
-815
-580
-112
-399
-809
-955
-758
-502
-473
-647
-820
-828
-716
-524
-904
-1446
-1469
-1203
-881
-792
-956
-1029
-717
-165
163
-9
-424
-566
-265
145
267
139
149
585
1320
2621
3211
3872
4469
4882
5197
5606
6091
6377
6257
5453
5136
4692
2860
1796
838
-702
-1205
-1523
-2134
-2418
-1605
-1516
-857
-990
-1386
-1446
-1100
-1020
-1653
-1650
-1335
-869
-803
-676
-965
-1243
-1113
-1020
-1139
-1462
-1331
-1075
-789
-812
-842
-689
-521
-436
-811
-1010
-949
-466
-498
-705
-571
-434
-457
-304
-184
-371
-571
-508
-338
-242
-253
-170
20
380
450
479
413
296
218
263
180
19
202
447
445
0
145
498
468
154
97
702
777
601
349
458
712
1210
971
789
698
809
813
681
561
836
1203
1323
1079
851
583
473
421
463
358
157
-70
-191
-818
-1118
-1295
-1241
-1175
-1218
-1389
-1265
-1063
-1169
-1465
-1704
-2031
-1512
-1612
-1652
-1197
-1247
-1649
-1859
-1432
-1311
-2432
-2557
-2050
-1445
-1818
-2038
-1374
-1198
-1376
-1707
-1693
-1826
-2375
-2208
-1738
-1414
-1630
-1594
-733
-691
-983
-957
-659
-721
-1396
-1164
-1367
-1261
-1088
-932
-992
-1018
-881
-888
-1027
-775
-526
-879
-1051
-866
-429
-686
-999
-800
-588
-663
-1145
-1024
-632
-751
-833
-698
-705
-990
-966
-745
-625
-933
-1150
-528
-284
-532
-1103
-670
-201
-857
-1251
-1005
-281
-732
-1228
-567
-202
-443
-1098
-723
-283
-613
-894
-786
-397
-85
-805
-723
-428
-227
-369
-351
-471
-518
-282
-312
-534
-798
-658
-554
-839
-920
-744
-158
-131
-246
-247
-123
-75
-395
-624
-746
-453
-306
-425
-863
-622
-141
-54
-893
-430
-194
-787
-953
-794
-522
-589
-546
-366
-564
-797
-518
-395
-629
-1136
-891
-534
-352
-336
-244
-216
-294
-370
-352
-450
-627
-666
-309
-328
-485
-388
-205
-177
-300
-426
-494
-516
-584
-47
-352
-274
-358
-571
-610
-500
-535
-613
-381
-123
6
35
122
67
-42
-44
159
80
-193
-611
-517
-333
-497
-708
-674
-64
7
-155
-332
-367
-320
-331
-393
85
101
194
269
290
300
322
167
20
-16
69
122
54
-42
-22
142
325
394
385
427
573
722
734
564
314
181
262
427
428
201
-44
-59
155
358
383
302
213
58
-217
-486
-499
-246
-70
-220
-487
-644
-1006
-287
164
-20
-543
-775
-526
-195
-217
-543
-790
-753
-546
-399
-402
-448
-410
-279
-169
-182
-291
-353
-274
-132
-53
-23
68
312
616
798
847
965
1368
2084
2909
3599
4399
4810
5442
6251
7001
7401
7331
6961
4583
1752
241
-206
-829
-1582
-2157
-2258
-1421
-1114
-1067
-1075
-914
-730
-648
-729
-877
-1109
-1373
-1527
-1520
-1419
-1499
-1541
-1126
-918
-913
-1106
-986
-806
-974
-1179
-1134
-341
-184
-391
-863
-726
-757
-638
-398
-476
-563
-518
-363
-233
-200
-215
-192
-224
-520
-566
-403
-129
34
-25
-154
236
425
232
-202
-430
-233
122
-87
-352
-214
538
397
4
6
353
511
379
605
998
729
403
537
557
1130
1490
1584
1262
1277
1412
1427
1302
1219
1220
1243
1321
1733
1809
1664
1358
1530
1692
1118
763
813
1395
1335
1086
891
928
904
738
624
429
177
276
-523
-800
-668
-437
-501
-1158
-1190
-1065
-1325
-1625
-1721
-1409
-1357
-1486
-1846
-1898
-1889
-1965
-2014
-1932
-1407
-1364
-1508
-1369
-1063
-962
-1535
-1343
-1036
-983
-875
-761
-766
-698
-1299
-1118
-959
-923
-651
-476
-586
-1400
-1390
-1055
-1076
-1426
-1395
-297
-108
-367
-889
-882
-1141
-1062
-349
-432
-453
-406
-528
-641
-654
-571
-588
-529
-229
-310
-811
-1355
-846
-719
-773
-701
-519
-494
-824
-716
-473
-732
-1033
-942
-193
-404
-928
-884
-475
-508
-1313
-1056
-493
-670
-1130
-1064
-231
-522
-1077
-842
-359
-269
-403
-144
-98
-409
-494
-653
-842
-713
-517
-465
-561
-554
-532
-704
-810
-526
-495
-632
-462
-147
-51
-467
-472
-331
-423
-600
-631
-360
-251
-173
4
97
142
-82
-265
-318
-160
-371
-445
-172
-366
-511
-454
-520
-584
-244
-128
-224
-288
-190
-307
-827
-660
-320
-445
-684
-609
-126
-308
-643
-772
-669
-608
-310
-109
-72
-195
-85
-56
-912
-1355
-1357
-613
37
-788
-370
-416
-523
-175
-39
-214
-679
-531
-352
-682
-773
-512
250
333
352
443
201
-217
-360
-116
-178
-1004
-836
-219
59
-453
-670
121
211
-27
22
243
110
-225
-57
-426
-596
2
119
-315
-296
70
201
275
172
3
-117
-97
33
145
141
42
-12
84
324
541
549
343
164
253
573
809
703
163
-218
394
281
-85
-298
-117
269
461
288
-8
-91
74
-124
-195
-50
47
-141
-462
-570
-340
-55
-25
-229
-363
-258
-71
-54
-215
-338
-302
-210
-213
-275
-230
-50
62
-56
-277
-333
-183
-101
-324
-693
-842
-618
-179
240
207
593
642
685
1703
2406
2839
3086
3499
4246
5127
5817
6170
6325
6483
6677
6787
6682
6329
5110
4336
3460
1518
600
-166
-1083
-1328
-1556
-1807
-1711
-1521
-1165
-1035
-946
-1028
-1042
-920
-1278
-995
-986
-713
-824
-931
-763
-663
-648
-508
-318
-215
-336
-364
-351
-583
-796
-886
-560
-404
-483
-899
-733
-299
-40
-349
-482
147
318
161
-90
82
205
160
37
-21
542
176
217
433
-233
-183
270
835
622
460
757
870
838
768
719
566
521
829
1154
1197
1094
1158
1372
1158
823
881
1282
1589
1615
1723
2004
2265
1975
1612
880
1170
1012
977
722
686
736
476
330
250
331
522
532
106
-311
-123
22
-264
-1263
-1264
-971
-750
-982
-1220
-1166
-957
-837
-1048
-1145
-1155
-1272
-1401
-1624
-1711
-1009
-802
-1017
-1527
-1320
-1024
-785
-746
-766
-1123
-1104
-821
-622
-1007
-1338
-854
-458
-391
-838
-817
-612
-592
-850
-1011
-812
-761
-803
-647
-499
-454
-443
-382
-409
-958
-214
-518
-647
-260
-321
-668
-982
-714
-429
-249
-267
-268
-96
-154
-619
-795
-804
-561
-521
-605
-835
-720
-505
-738
-1101
-1188
-562
-488
-622
-463
-345
-518
-701
-346
-333
-1022
76
111
-359
-676
-343
-110
-126
-220
-443
-792
-544
-238
-1048
-955
-47
-82
-437
-617
-414
-400
-756
-672
-494
-758
-882
-632
0
-236
-584
-287
14
-15
-67
-293
-234
-342
-728
-745
-588
-425
-589
-679
-253
-90
-186
-634
-638
-562
-617
-648
-557
-349
-412
-486
-218
-11
17
-193
-534
-777
-751
-301
-358
-639
-668
-252
76
-43
-125
-712
-1188
-661
-601
-658
-308
-147
-281
-751
-711
-595
-515
-541
-591
-335
28
220
-445
-726
-632
-386
-679
-1011
-1011
-755
-516
-488
-660
-721
-340
-289
-441
-580
-481
-469
-709
-917
-231
-162
-679
-662
-332
32
-199
-416
-304
-232
-272
-576
-852
-1137
-1114
-841
-676
-622
-449
-430
-491
-496
-610
-709
-685
-366
-297
-286
-179
-133
-95
99
50
279
-411
180
-175
-492
-358
58
248
18
-329
-408
-210
-55
-164
-429
-598
-566
-480
-544
-796
-1062
-1142
-706
-221
-961
-931
-923
-487
-702
-658
-465
-305
-359
-640
-922
-928
-587
-77
331
550
725
1107
1796
2603
3190
3395
3454
3806
4603
5496
5979
5937
5779
5887
6091
5854
4933
3718
2810
1806
868
-297
-1349
-1257
-1316
-1988
-2031
-1828
-1679
-1759
-1934
-1490
-1558
-1306
-1341
-1551
-1515
-1263
-1264
-1773
-1633
-1313
-1655
-2023
-1877
-1291
-814
-799
-591
-666
-1013
-1681
-1622
-1290
-1142
-1438
-1529
-722
-423
-464
-641
-416
-170
-215
-167
43
-230
-420
-262
53
92
-582
-443
67
391
185
-247
-348
431
494
284
172
214
136
312
527
449
-39
288
879
1124
891
855
1169
1189
1132
915
702
564
909
1088
1386
1118
983
769
707
1112
1252
1249
1082
898
611
393
560
550
-134
-57
429
520
-84
-394
28
-246
-887
-1181
-833
-717
-983
-909
-859
-1171
-1212
-1173
-1605
-1779
-1596
-1861
-2235
-1974
-1717
-1734
-1685
-1575
-1762
-1912
-1891
-1754
-1835
-1890
-1547
-1290
-1123
-1136
-1216
-1236
-1208
-1275
-1357
-1363
-1398
-1482
-1470
-1382
-1349
-1240
-1061
-880
-858
-967
-1057
-990
-988
-1093
-1073
-388
-420
-761
-1199
-1083
-918
-860
-899
-885
-685
-556
-458
-483
-602
-671
-455
-410
-564
-840
-775
-767
-1106
-1107
-912
-709
-837
-936
-673
-468
-376
-443
-636
-820
-887
-1034
-934
-404
-338
-599
-586
-406
-290
-538
-766
-668
-602
-729
-934
-978
-791
-578
-789
-964
-877
-406
-471
-715
-924
-743
-513
-441
-577
-640
-572
-657
-780
-549
-357
-386
-638
-402
-627
-614
-400
-498
-559
-234
-78
-116
-504
-618
-591
-275
-250
-363
-371
-174
-60
-250
-291
-264
-368
-399
-332
-327
-386
-337
-201
-420
-722
-627
-420
-400
-637
-505
-303
-491
-848
-345
-59
-289
-373
-199
-78
-436
-715
-672
-468
-454
-708
-913
-728
-609
-602
-511
-465
-784
-861
-821
-984
-1106
-974
-225
-47
-37
-45
-83
-481
-771
-957
-749
-598
-465
-570
-354
-377
-359
-156
-118
-179
-307
-468
-609
-678
-607
-564
-541
-383
-336
-363
-227
10
131
14
-193
-241
-27
391
243
-12
-258
-321
-436
-541
-447
-329
26
292
455
164
233
537
207
29
104
-95
-448
-580
-411
-289
-477
-744
-621
-48
483
521
198
-2
105
225
59
-240
-315
-117
-5
-202
-437
-292
228
670
670
88
25
-15
-126
-180
-65
45
-66
-295
-243
276
924
1197
642
229
328
541
340
139
117
214
195
-44
-303
-313
-62
154
35
-340
-594
-467
-117
47
-202
-659
-899
-733
-378
-226
-730
-823
-615
-376
-435
-807
-1129
-1073
-688
-323
-242
-370
-474
-428
-295
-365
268
387
138
204
710
1367
1805
1966
2125
2554
3299
4174
4941
5466
5813
6144
6542
6904
7029
6771
4962
4517
3215
2118
996
-162
-502
-1166
-2064
-2662
-2585
-2075
-1748
-1893
-1711
-743
-598
-645
-523
-583
-53
-410
115
420
654
618
319
107
368
1597
1643
1340
1388
1715
1835
1708
1736
1603
629
438
704
1217
965
682
1346
1941
2131
1704
1837
2185
2409
2558
3044
3698
3469
3410
4087
4349
3954
4124
4113
3841
3689
3672
3521
3384
3851
4047
3871
3576
4207
5031
5087
4752
5029
6738
6329
6367
6848
7063
6745
6725
6715
6158
5960
5988
6001
5885
5911
6010
5791
6339
5857
5990
5658
5365
5490
5672
5707
5512
5561
5701
5783
5673
5533
5167
4910
4671
4456
4359
4202
3876
3836
3562
3375
3188
2895
2887
2984
2923
2743
2672
2913
2840
2567
2620
2504
2565
2537
2100
2081
2276
2210
1961
2012
2752
2695
2352
2367
2764
2988
2631
2421
2371
2524
2463
2181
1563
1748
1912
1923
2031
2248
2200
2134
1997
1829
1659
1531
1411
1706
1310
1053
739
661
1043
1099
1022
1012
1095
1102
822
737
821
1074
941
705
674
801
708
77
95
405
707
504
359
707
818
683
418
472
408
-173
-17
595
645
-906
-1055
-232
-168
-492
-342
548
588
425
187
41
-110
-121
-16
111
543
770
858
735
723
790
929
876
756
924
1277
1463
224
332
921
713
451
1010
1384
1548
1139
1536
1025
531
835
1195
1190
269
43
202
709
698
619
508
337
184
306
217
-168
-494
14
514
142
-121
203
1462
1273
605
133
464
591
40
246
1007
678
880
739
206
125
215
397
338
324
811
959
775
193
247
-1075
-780
-570
-766
-560
-336
-557
-695
-570
-254
-370
-429
-76
-77
-267
-468
-499
-10
562
177
8
73
-44
-377
-516
71
248
167
75
233
356
204
130
202
445
415
350
558
646
499
-5
23
132
-150
-302
-144
462
319
-24
314
932
1158
1478
431
1195
1002
473
126
146
203
364
748
840
721
592
595
738
911
1002
932
700
397
177
255
139
-261
-703
-797
-467
-27
192
170
128
375
425
1017
1322
1372
1390
1675
2268
2986
3592
4073
4681
5658
6893
7910
7666
7509
7341
6603
5544
4594
4083
3481
1760
-9
-457
266
56
-4840
-3137
844
-3079
-4203
5837
26008
13373
-1159
19273
26826
9543
-5201
29398
-9236
-14285
27953
18516
-6202
8885
27001
18656
-12286
24122
-1478
-11088
1402
27565
15941
740
-2795
2352
5613
3526
-1540
-5425
3876
11032
11265
-6977
-13027
-10964
6814
10382
5541
-10182
-10497
-4723
18710
-32419
27428
4632
-4068
-4654
15961
25869
26499
-2599
-2156
16983
23393
20926
1936
-854
4469
18730
17469
10722
-534
2863
11084
15624
5912
-3634
5703
16830
20458
9098
5254
2847
21853
1514
6747
12709
15
-8140
4162
18020
19764
10672
3501
1131
27987
12999
1041
6012
9408
7229
7796
7695
8172
7660
7177
6870
6221
4943
4979
5288
5161
4930
5115
6014
5912
5616
5490
5251
4722
4367
4660
4746
4360
4181
3914
2003
4703
4775
4359
3907
3273
1940
3304
3555
2078
2268
3407
4416
3528
2690
2661
2777
2829
3506
3660
3311
3410
4439
5054
3179
2338
2501
2831
1918
1279
2602
3133
2860
1880
2984
1839
1517
899
1653
2538
2587
2180
2177
2350
1552
1069
1457
1646
1046
1066
1562
2742
2812
2548
2385
3007
3741
3846
