timestamp,ECG_Raw
2058668,-1887
2058773,-1278
2058829,-835
2058882,-752
2058935,-463
2058950,-1198
2059003,-617
2059014,-308
2059035,-962
2059087,-1366
2059100,-204
2059121,292
2059174,155
2059184,-228
2059298,72
2059401,-395
2059456,-534
2059509,404
2059517,-238
2059539,-242
2059591,32
2059603,387
2059625,171
2059677,-143
2059688,-300
2059709,-182
2059762,-108
2059773,-76
2059794,-45
2059846,-41
2059857,199
2059879,450
2059931,552
2059942,240
2059963,239
2060016,385
2060028,130
2060074,-287
2060127,-342
2060133,-12
2060185,-249
2060196,-512
2060217,-201
2060269,162
2060282,190
2060304,102
2060454,342
2060511,2566
2060564,3247
2060617,2642
2060637,2242
2060688,1935
2060699,1821
2060721,1853
2060773,1687
2060785,1248
2060807,1337
2060859,1491
2060870,1329
2060891,1176
2060943,1097
2060956,904
2060977,728
2061029,570
2061040,121
2061061,-261
2061113,-685
2061125,-1433
2061147,-1580
2061199,-1511
2061210,-1182
2061231,-1099
2061283,-957
2061295,-516
2061349,-658
2061401,-1469
2061455,-1955
2061464,-3147
2061584,-3241
2061685,-2347
2061740,-2164
2061793,-1987
2061799,-1575
2061817,-1287
2061869,-934
2061881,-464
2061903,-585
2061955,-866
2061966,-760
2061987,-86
2062039,651
2062051,920
2062073,609
2062125,529
2062137,1213
2062157,1427
2062209,1324
2062222,886
2062243,896
2062295,1119
2062306,1743
2062327,1697
2062379,1336
2062391,953
2062413,1267
2062464,1539
2062477,1089
2062498,886
2062549,985
2062562,1032
2062600,725
2062749,442
2062851,-61
2062903,615
2062915,-755
2062964,-518
2062979,-293
2063000,-519
2063050,-506
2063064,91
2063086,131
2063136,3
2063150,-19
2063171,43
2063221,64
2063233,-53
2063255,-276
2063305,-527
2063319,-198
2063341,186
2063390,203
2063404,-566
2063425,-540
2063474,-318
2063488,-931
2063510,-1545
2063559,-1716
2063573,-1243
2063595,-1298
2063644,-1388
2063658,-468
2063680,71
2063728,165
2063744,-237
2063766,-84
2063912,250
2063964,385
2064012,-81
2064051,-276
2064098,-326
2064146,-226
2064162,-140
2064184,-396
2064229,-612
2064247,-905
2064268,-1378
2064314,-1957
2064332,-2098
2064354,-1727
2064398,-1586
2064417,-2180
2064439,-2224
2064484,-1946
2064503,-2010
2064525,-2572
2064569,-2972
2064588,-2569
2064609,-2368
2064654,-2481
2064673,-2429
2064694,-1933
2064738,-1426
2064757,-1310
2064779,-1545
2064822,-1660
2064843,-1364
2064865,-1271
2064908,-1458
2064927,-2091
2065044,-1989
2065127,-892
2065171,-810
2065177,-371
2065215,-237
2065257,-583
2065263,-1423
2065285,-1146
2065327,-686
2065348,-858
2065369,-1120
2065411,-996
2065433,-358
2065453,-428
2065495,-548
2065500,-423
2065519,-117
2065540,55
2065582,-43
2065604,-277
2065626,-216
2065668,-288
2065688,-814
2065710,-868
2065752,-753
2065757,-674
2065775,-731
2065797,-817
2065839,-797
2065859,-656
2065881,-763
2065922,-959
2065927,-1108
2065945,-1149
2065967,-1129
2066008,-1115
2066014,-1136
2066032,-1164
2066054,-1170
2066193,-1150
2066270,-1839
2066313,-1394
2066355,-824
2066366,-336
2066387,-483
2066428,-808
2066433,-1134
2066452,-1321
2066473,-1375
2066514,-1457
2066520,-1719
2066538,-2072
2066560,-2216
2066601,-1986
2066606,-1646
2066624,-1633
2066646,-2002
2066687,-2272
2066692,-2008
2066711,-1399
2066732,-1073
2066773,-1326
2066778,-1777
2066797,-1840
2066819,-1467
2066859,-1118
2066865,-1117
2066883,-1298
2066905,-1346
2066945,-1225
2066951,-1160
2066969,-1241
2066991,-1293
2067031,-1209
2067037,-1144
2067074,-1273
2067080,-1544
2067120,-1659
2067139,-1160
2067161,-1011
2067201,-1080
2067207,-1186
2067225,-1165
2067335,-1051
2067414,-1985
2067456,-2118
2067475,-2893
2067497,-3113
2067537,-2903
2067543,-2430
2067561,-2112
2067583,-2193
2067623,-2522
2067628,-2737
2067649,-2631
2067670,-2308
2067711,-2078
2067716,-2127
2067734,-2381
2067756,-2596
2067796,-2629
2067801,-2523
2067820,-2412
2067842,-2343
2067882,-2229
2067887,-2058
2067906,-1980
2067927,-2156
2067968,-2526
2068023,-2771
2068065,-2336
2068074,-2909
2068096,-2929
2068136,-2616
2068142,-2247
2068162,-2089
2068183,-2157
2068224,-2298
2068229,-2454
2068247,-2683
2068269,-2962
2068309,-3148
2068315,-3152
2068333,-3058
2068355,-2977
2068494,-2933
2068537,-2097
2068578,-1641
2068585,-1370
2068606,-1170
2068646,-903
2068652,-609
2068670,-311
2068691,-58
2068732,143
2068737,341
2068757,638
2068778,1127
2068818,1782
2068824,2485
2068842,3115
2068864,3575
2068904,3836
2068909,3934
2068947,3948
2068953,3934
2068993,3804
2069014,2466
2069035,1271
2069076,25
2069081,-1106
2069099,-2120
2069121,-3062
2069161,-3911
2069166,-4600
2069186,-5107
2069206,-5470
2069247,-5645
2069252,-5536
2069272,-5118
2069293,-4581
2069333,-4196
2069338,-4070
2069358,-4110
2069457,-4194
2069500,-4076
2069640,-4183
2069719,-4143
2069761,-3295
2069774,-3908
2069796,-3215
2069836,-2375
2069841,-2151
2069860,-2605
2069881,-3066
2069922,-2934
2069927,-2312
2069945,-1844
2069967,-1997
2070040,-2570
2070052,-2391
2070092,-2074
2070097,-2232
2070116,-2689
2070137,-2976
2070177,-2805
2070183,-2387
2070203,-2216
2070223,-2517
2070263,-2946
2070268,-3013
2070288,-2653
2070310,-2325
2070350,-2485
2070356,-2988
2070374,-3292
2070396,-3109
2070436,-2768
2070441,-2779
2070460,-3152
2070481,-3432
2070521,-3286
2070527,-2883
2070547,-2625
2070568,-2631
2070609,-2677
2070614,-2608
2070632,-2500
2070654,-2436
2070793,-2344
2070837,-1884
2070877,-1646
2070883,-1976
2070922,-1835
2070962,-1601
2070968,-1612
2070989,-1627
2071030,-1479
2071035,-1355
2071055,-1432
2071077,-1643
2071117,-1740
2071122,-1597
2071141,-1353
2071162,-1176
2071202,-1092
2071208,-968
2071226,-727
2071247,-481
2071288,-376
2071293,-448
2071313,-564
2071334,-571
2071374,-434
2071379,-272
2071398,-246
2071421,-418
2071461,-662
2071466,-764
2071485,-601
2071506,-308
2071546,-136
2071551,-247
2071571,-559
2071593,-850
2071633,-933
2071638,-820
2071656,-684
2071694,-698
2071734,-891
2071742,-1107
2071764,-786
2071804,-328
2071809,-69
2071829,-175
2071937,-489
2072015,-848
2072057,-1024
2072077,-1515
2072099,-1675
2072139,-1571
2072144,-1400
2072164,-1411
2072186,-1611
2072226,-1738
2072231,-1652
2072250,-1535
2072271,-1679
2072311,-2083
2072316,-2395
2072337,-2323
2072358,-2026
2072398,-1966
2072403,-2375
2072422,-2966
2072443,-3249
2072483,-3072
2072489,-2783
2072509,-2795
2072530,-3150
2072570,-3551
2072576,-3694
2072594,-3568
2072632,-3417
2072672,-3437
2072680,-3891
2072701,-4115
2072741,-4257
2072747,-4267
2072765,-4109
2072787,-3834
2072827,-3638
2072832,-3708
2072852,-3971
2072872,-4101
2072912,-3899
2072918,-3535
2072938,-3371
2072959,-3550
2073098,-3821
2073141,-3901
2073182,-4009
2073188,-3844
2073210,-3796
2073250,-3871
2073256,-3936
2073274,-3767
2073296,-3397
2073336,-3180
2073341,-3386
2073361,-3841
2073381,-4080
2073422,-3913
2073427,-3629
2073447,-3639
2073469,-3989
2073509,-4304
2073547,-4287
2073553,-3701
2073593,-3585
2073598,-3573
2073617,-3511
2073639,-3369
2073679,-3225
2073684,-3172
2073704,-3216
2073726,-3318
2073766,-3413
2073771,-3432
2073790,-3364
2073811,-3295
2073852,-3329
2073857,-3505
2073875,-3698
2073897,-3757
2073937,-3625
2073942,-3441
2073962,-3381
2073984,-3450
2074024,-3482
2074029,-3352
2074048,-3086
2074070,-2810
2074110,-2623
2074115,-2538
2074133,-2531
2074244,-2570
2074322,-3506
2074364,-3259
2074385,-3213
2074405,-2979
2074478,-2676
2074489,-2778
2074530,-2808
2074535,-2744
2074555,-2776
2074575,-2981
2074615,-3205
2074620,-3273
2074640,-3178
2074662,-3059
2074702,-3030
2074707,-3085
2074726,-3133
2074747,-3097
2074788,-2975
2074793,-2811
2074813,-2679
2074835,-2674
2074875,-2772
2074880,-2810
2074898,-2684
2074920,-2491
2074960,-2463
2074965,-2662
2074984,-2896
2075006,-2950
2075046,-2833
2075051,-2796
2075071,-2981
2075091,-3210
2075131,-3191
2075136,-2880
2075157,-2541
2075178,-2482
2075218,-2732
2075256,-3002
2075263,-2726
2075401,-2398
2075444,-2277
2075485,-2457
2075493,-2722
2075514,-2457
2075554,-2309
2075559,-2521
2075578,-2909
2075600,-3039
2075639,-2760
2075645,-2410
2075665,-2429
2075686,-2852
2075726,-3245
2075732,-3181
2075750,-2729
2075772,-2368
2075812,-2501
2075817,-2985
2075837,-3269
2075859,-2990
2075899,-2353
2075904,-1934
2075922,-2034
2075944,-2448
2075984,-2731
2075989,-2724
2076009,-2639
2076031,-2714
2076071,-2906
2076076,-2968
2076095,-2828
2076132,-2703
2076172,-2812
2076180,-3005
2076202,-2618
2076242,-2168
2076247,-2111
2076265,-2485
2076287,-2856
2076327,-2837
2076332,-2539
2076352,-2424
2076374,-2715
2076414,-3132
2076419,-3236
2076438,-2983
2076546,-2752
2076624,-2610
2076631,-2688
2076671,-2513
2076690,-2323
2076710,-2548
2076750,-2817
2076755,-3005
2076775,-3115
2076797,-3214
2076837,-3287
2076842,-3246
2076861,-3107
2076882,-2962
2076922,-2892
2076928,-2859
2076948,-2771
2076969,-2625
2077009,-2496
2077047,-2441
2077053,-2307
2077093,-2211
2077099,-2246
2077119,-2452
2077140,-2647
2077180,-2614
2077186,-2390
2077204,-2282
2077226,-2508
2077266,-2898
2077271,-3045
2077291,-2750
2077313,-2294
2077353,-2179
2077358,-2549
2077376,-3013
2077398,-3111
2077438,-2800
2077443,-2489
2077463,-2508
2077483,-2729
2077523,-2821
2077529,-2689
2077549,-2578
2077570,-2672
2077709,-2797
2077752,-2775
2077793,-2751
2077800,-3093
2077822,-3081
2077862,-2944
2077867,-2879
2077886,-2900
2077923,-2823
2077963,-2608
2077971,-2588
2077993,-2788
2078033,-2765
2078038,-2522
2078056,-2375
2078078,-2549
2078118,-2857
2078123,-2932
2078143,-2703
2078165,-2488
2078205,-2523
2078210,-2698
2078229,-2751
2078250,-2647
2078290,-2604
2078296,-2720
2078316,-2825
2078336,-2695
2078375,-2381
2078381,-2199
2078401,-2350
2078423,-2650
2078462,-2758
2078468,-2601
2078488,-2413
2078508,-2463
2078548,-2699
2078553,-2849
2078573,-2777
2078595,-2613
2078634,-2539
2078640,-2537
2078678,-2480
2078683,-2362
2078723,-2376
2078744,-2809
2078852,-2725
2078930,-3034
2078936,-2146
2078976,-2437
2078995,-2596
2079017,-2290
2079057,-2093
2079062,-2187
2079081,-2454
2079102,-2669
2079142,-2742
2079147,-2762
2079167,-2841
2079189,-2963
2079229,-3027
2079234,-2961
2079254,-2826
2079274,-2764
2079314,-2779
2079319,-2738
2079339,-2528
2079361,-2239
2079401,-2128
2079406,-2295
2079426,-2537
2079446,-2587
2079486,-2444
2079492,-2365
2079511,-2553
2079533,-2877
2079606,-2961
2079618,-2090
2079658,-2330
2079663,-2620
2079681,-2584
2079703,-2246
2079743,-1983
2079748,-2077
2079768,-2416
2079788,-2654
2079828,-2622
2079834,-2518
2079854,-2559
2079875,-2671
2080014,-2617
2080057,-1884
2080098,-1733
2080105,-2027
2080127,-1928
2080166,-1933
2080171,-2173
2080191,-2369
2080213,-2167
2080252,-1660
2080258,-1335
2080278,-1509
2080377,-1937
2080418,-1778
2080459,-2219
2080466,-2211
2080506,-2205
2080511,-2194
2080531,-2126
2080551,-2094
2080623,-2202
2080635,-2456
2080674,-2465
2080680,-2670
2080700,-2912
2080721,-2921
2080761,-2651
2080766,-2379
2080786,-2364
2080808,-2472
2080847,-2415
2080852,-2124
2080872,-1860
2080894,-1867
2080933,-2080
2080938,-2232
2080959,-2198
2080980,-2101
2081020,-2089
2081025,-2115
2081045,-2058
2081153,-1919
2081230,-1706
2081236,-1742
2081276,-1613
2081295,-1366
2081317,-1443
2081356,-1520
2081361,-1444
2081381,-1248
2081403,-1120
2081442,-1245
2081447,-1576
2081467,-1834
2081505,-1751
2081545,-1317
2081552,-386
2081574,-38
2081613,525
2081618,1411
2081638,2356
2081660,3006
2081700,3343
2081705,3687
2081725,4275
2081747,4943
2081786,5298
2081792,5200
2081810,4916
2081832,4762
2081872,4674
2081877,4290
2081897,3416
2081919,2293
2081959,1281
2081964,406
2081983,-654
2082004,-2053
2082044,-3405
2082049,-4136
2082070,-4141
2082090,-3901
2082129,-3976
2082135,-4294
2082155,-4263
2082176,-3562
2082315,-2642
2082358,-2834
2082399,-3962
2082407,-3630
2082445,-3385
2082485,-3586
2082491,-3686
2082513,-3104
2082553,-2670
2082558,-2734
2082576,-3070
2082598,-3220
2082638,-3070
2082643,-2922
2082664,-3010
2082685,-3252
2082725,-3440
2082731,-3486
2082749,-3465
2082771,-3422
2082811,-3316
2082816,-3170
2082836,-3065
2082856,-3068
2082896,-3115
2082901,-3058
2082922,-2897
2082943,-2779
2082983,-2825
2082988,-2977
2083007,-3104
2083029,-3138
2083069,-3148
2083074,-3213
2083094,-3270
2083116,-3196
2083156,-3008
2083161,-2865
2083199,-2870
2083204,-2896
2083244,-2768
2083265,-2340
2083286,-2378
2083326,-2497
2083332,-2458
2083350,-2245
2083458,-2099
2083536,-2148
2083542,-2387
2083582,-2152
2083602,-1974
2083623,-2226
2083663,-2385
2083668,-2299
2083688,-2178
2083708,-2317
2083748,-2694
2083754,-2937
2083774,-2760
2083795,-2290
2083835,-1955
2083841,-1964
2083861,-2070
2083881,-1908
2083921,-1516
2083926,-1261
2083946,-1362
2083968,-1591
2084007,-1596
2084013,-1388
2084033,-1325
2084053,-1584
2084126,-1866
2084137,-1133
2084177,-1114
2084182,-1136
2084203,-894
2084224,-485
2084264,-317
2084269,-571
2084287,-943
2084309,-1035
2084349,-836
2084354,-690
2084374,-844
2084396,-1128
2084436,-1177
2084441,-889
2084459,-536
2084481,-424
2084620,-537
2084663,-440
2084704,-527
2084711,-575
2084733,-704
2084773,-662
2084778,-456
2084798,-372
2084820,-616
2084860,-995
2084865,-1122
2084883,-908
2084905,-704
2084945,-859
2084950,-1210
2084970,-1250
2084992,-819
2085032,-368
2085070,-437
2085075,-1375
2085116,-1247
2085121,-916
2085141,-993
2085162,-1572
2085202,-2101
2085208,-2069
2085226,-1654
2085248,-1443
2085288,-1681
2085293,-2039
2085313,-2124
2085335,-2017
2085375,-2095
2085380,-2462
2085398,-2803
2085420,-2840
2085460,-2712
2085465,-2747
2085484,-3001
2085506,-3186
2085545,-3064
2085551,-2730
2085571,-2505
2085592,-2555
2085632,-2754
2085638,-2919
2085656,-3003
2085764,-3070
2085842,-3187
2085849,-2854
2085888,-2979
2085908,-2839
2085929,-2451
2086002,-2268
2086014,-3119
2086054,-2837
2086059,-2510
2086077,-2601
2086099,-3064
2086139,-3379
2086144,-3228
2086164,-2878
2086186,-2804
2086226,-3065
2086231,-3207
2086250,-2901
2086271,-2350
2086311,-2027
2086316,-2069
2086336,-2182
2086358,-2091
2086398,-1881
2086403,-1828
2086422,-1980
2086443,-2140
2086483,-2209
2086489,-2306
2086509,-2521
2086530,-2672
2086570,-2557
2086575,-2264
2086594,-2114
2086615,-2242
2086655,-2381
2086661,-2193
2086681,-1753
2086702,-1474
2086994,-1585
2087112,-1585
2087155,-1509
2087195,-1535
2087201,-1830
2087241,-1633
2087262,-1378
2087284,-1557
2087324,-1826
2087329,-1971
2087349,-1847
2087370,-1536
2087410,-1319
2087416,-1439
2087434,-1816
2087456,-2066
2087496,-1888
2087501,-1478
2087521,-1296
2087543,-1559
2087582,-1989
2087588,-2139
2087606,-1910
2087628,-1586
2087668,-1480
2087673,-1635
2087693,-1872
2087715,-2016
2087755,-2028
2087760,-1971
2087779,-1932
2087800,-1997
2087840,-2157
2087845,-2295
2087884,-2290
2087889,-2121
2087929,-1915
2087949,-1728
2087971,-1723
2088011,-1736
2088016,-1739
2088132,-1689
2088174,-2083
2088215,-1837
2088223,-2011
2088263,-2178
2088268,-2158
2088288,-1982
2088310,-1829
2088350,-1798
2088355,-1809
2088375,-1767
2088395,-1682
2088435,-1686
2088440,-1841
2088460,-2029
2088482,-2097
2088522,-1966
2088527,-1725
2088546,-1560
2088567,-1582
2088607,-1710
2088612,-1726
2088632,-1529
2088654,-1243
2088694,-1149
2088699,-1386
2088718,-1810
2088756,-2127
2088796,-2177
2088803,-1929
2088825,-1924
2088865,-1979
2088870,-1959
2088889,-1818
2088910,-1625
2088950,-1483
2088956,-1422
2088976,-1410
2088997,-1418
2089037,-1432
2089042,-1433
2089061,-1410
2089083,-1396
2089122,-1469
2089128,-1647
2089148,-1844
2089169,-1921
2089308,-1873
2089351,-1617
2089392,-1337
2089398,-1159
2089420,-1029
2089460,-1010
2089465,-1139
2089485,-1317
2089506,-1420
2089546,-1382
2089552,-1274
2089570,-1246
2089592,-1396
2089632,-1641
2089670,-1744
2089678,-1414
2089718,-1487
2089723,-1844
2089741,-2128
2089763,-2006
2089803,-1594
2089808,-1311
2089828,-1378
2089850,-1592
2089890,-1676
2089895,-1638
2089913,-1658
2089935,-1730
2089975,-1658
2089980,-1404
2090000,-1255
2090022,-1430
2090062,-1721
2090067,-1693
2090086,-1260
2090107,-841
2090147,-842
2090152,-1217
2090172,-1558
2090194,-1554
2090234,-1295
2090239,-1062
2090258,-1052
2090279,-1266
2090319,-1517
2090324,-1589
2090345,-1420
2090453,-1206
2090564,-1431
2090607,-1341
2090615,-1448
2090655,-1805
2090660,-2024
2090680,-2019
2090701,-1942
2090741,-1920
2090747,-1895
2090765,-1787
2090787,-1604
2090827,-1415
2090832,-1255
2090852,-1138
2090872,-1125
2090912,-1242
2090917,-1390
2090937,-1419
2090959,-1293
2090999,-1206
2091004,-1308
2091024,-1514
2091046,-1584
2091086,-1427
2091091,-1230
2091109,-1226
2091131,-1407
2091171,-1550
2091176,-1482
2091196,-1295
2091295,-1262
2091337,-1733
2091378,-1277
2091384,-1784
2091424,-1809
2091462,-1621
2091470,-1459
2091608,-1469
2091652,-1427
2091692,-994
2091698,-1604
2091720,-1795
2091760,-1734
2091765,-1527
2091785,-1324
2091807,-1254
2091847,-1394
2091852,-1643
2091870,-1717
2091892,-1427
2091932,-968
2091937,-786
2091957,-1108
2091979,-1637
2092019,-1870
2092024,-1713
2092042,-1546
2092064,-1682
2092104,-1955
2092109,-1906
2092129,-1392
2092151,-808
2092191,-607
2092196,-813
2092216,-1039
2092236,-980
2092276,-745
2092281,-680
2092301,-976
2092486,-1427
2092565,-597
2092607,-977
2092746,-654
2092825,-807
2092867,-1402
2092882,-1381
2092905,-1346
2092944,-1464
2092949,-1678
2092968,-1808
2092989,-1772
2093029,-1721
2093034,-1855
2093054,-2132
2093076,-2244
2093115,-1980
2093120,-1531
2093140,-1313
2093162,-1521
2093201,-1908
2093207,-2029
2093227,-1746
2093248,-1376
2093288,-1307
2093293,-1580
2093313,-1892
2093335,-1934
2093374,-1691
2093379,-1398
2093398,-1264
2093420,-1319
2093459,-1437
2093464,-1503
2093484,-1467
2093522,-1357
2093562,-1287
2093569,-1513
2093591,-1618
2093630,-1574
2093636,-1449
2093656,-1390
2093677,-1498
2093717,-1695
2093722,-1809
2093742,-1770
2093764,-1635
2093902,-1500
2093945,-681
2093985,190
2093992,177
2094014,661
2094053,1585
2094058,2457
2094080,2904
2094100,3119
2094139,3616
2094145,4523
2094165,5349
2094186,5555
2094226,5211
2094231,4860
2094251,4818
2094273,4739
2094313,4092
2094318,2907
2094337,1762
2094359,1098
2094399,737
2094404,168
2094424,-823
2094462,-1913
2094502,-2684
2094508,-3295
2094530,-3480
2094569,-3587
2094575,-3606
2094595,-3661
2094615,-3789
2094655,-3819
2094660,-3560
2094680,-3113
2094702,-2835
2094742,-2920
2094747,-3166
2094767,-3166
2094787,-2860
2094827,-2595
2094832,-2666
2094852,-2985
2094874,-3181
2094914,-3049
2094919,-2788
2094938,-2709
2095046,-2847
2095124,-2256
2095130,-2520
2095171,-2540
2095190,-2619
2095211,-2666
2095251,-2736
2095257,-2814
2095275,-2819
2095297,-2694
2095337,-2503
2095375,-2373
2095382,-2248
2095422,-2105
2095428,-1999
2095446,-2108
2095468,-2397
2095508,-2607
2095513,-2514
2095533,-2226
2095555,-2070
2095595,-2178
2095600,-2314
2095619,-2180
2095640,-1801
2095680,-1563
2095685,-1731
2095704,-2100
2095726,-2202
2095766,-1885
2095771,-1524
2095791,-1591
2095812,-2092
2095853,-2534
2095858,-2468
2095876,-1950
2095898,-1511
2095938,-1521
2095943,-1826
2095963,-1996
2095985,-1787
2096025,-1418
2096030,-1226
2096048,-1254
2096070,-1279
2096241,-1149
2096321,-1617
2096363,-1455
2096382,-1228
2096404,-1049
2096443,-900
2096449,-825
2096469,-840
2096490,-918
2096530,-1012
2096535,-1054
2096554,-979
2096575,-840
2096615,-761
2096620,-791
2096640,-854
2096662,-834
2096702,-713
2096707,-606
2096727,-642
2096748,-756
2096788,-802
2096793,-706
2096812,-543
2096833,-449
2096874,-427
2096879,-367
2096899,-168
2096920,119
2096960,319
2096966,282
2096984,41
2097005,-227
2097045,-356
2097051,-252
2097071,12
2097092,254
2097165,275
2097175,-447
2097215,-160
2097220,219
2097240,240
2097262,-193
2097401,-661
2097444,-589
2097485,-225
2097491,-880
2097513,-1194
2097553,-1145
2097558,-986
2097578,-1089
2097600,-1471
2097640,-1814
2097645,-1870
2097664,-1730
2097686,-1669
2097726,-1825
2097731,-2119
2097750,-2392
2097771,-2579
2097812,-2674
2097817,-2645
2097836,-2518
2097857,-2404
2097898,-2447
2097903,-2637
2097922,-2798
2097943,-2759
2097984,-2523
2097989,-2318
2098008,-2358
2098029,-2662
2098103,-3027
2098113,-2867
2098154,-2663
2098159,-2626
2098177,-2709
2098199,-2732
2098239,-2559
2098245,-2229
2098263,-1960
2098285,-1895
2098326,-1944
2098331,-1944
2098349,-1887
2098371,-1925
2098411,-2181
2098417,-2476
2098437,-2485
2098545,-2108
2098624,-1777
2098667,-1618
2098686,-1975
2098708,-2232
2098748,-2236
2098753,-1806
2098772,-1199
2098793,-940
2098834,-1252
2098839,-1779
2098859,-1939
2098879,-1594
2098919,-1133
2098925,-1019
2098945,-1290
2098966,-1587
2099040,-1600
2099050,-875
2099090,-904
2099095,-1074
2099115,-1258
2099135,-1337
2099175,-1282
2099181,-1192
2099201,-1213
2099222,-1357
2099263,-1458
2099268,-1333
2099286,-1011
2099308,-728
2099348,-693
2099353,-848
2099373,-974
2099395,-963
2099435,-901
2099440,-951
2099458,-1120
2099480,-1256
2099520,-1257
2099525,-1188
2099544,-1183
2099565,-1289
2099704,-1408
2099748,-1043
2099789,-993
2099796,-786
2099818,-968
2099858,-1261
2099863,-1390
2099882,-1307
2099903,-1242
2099977,-1380
2099988,-1293
2100028,-1101
2100034,-1262
2100052,-1568
2100074,-1614
2100114,-1366
2100119,-1248
2100138,-1546
2100159,-2000
2100200,-2142
2100205,-1928
2100223,-1738
2100245,-1813
2100285,-1903
2100291,-1688
2100311,-1295
2100332,-1122
2100373,-1239
2100378,-1308
2100396,-1108
2100418,-906
2100458,-1048
2100463,-1452
2100482,-1679
2100503,-1524
2100544,-1262
2100549,-1213
2100568,-1297
2100589,-1254
2100629,-1117
2100635,-1175
2100655,-1506
2100676,-1774
2100848,-1714
2100928,-1153
2100971,-1360
2100987,-1612
2101008,-1643
2101049,-1691
2101054,-1819
2101074,-1909
2101096,-1828
2101136,-1656
2101141,-1604
2101160,-1719
2101181,-1852
2101221,-1880
2101227,-1894
2101245,-2010
2101267,-2186
2101307,-2300
2101312,-2278
2101331,-2181
2101353,-2070
2101393,-1903
2101398,-1649
2101418,-1437
2101440,-1430
2101480,-1623
2101485,-1801
2101504,-1765
2101526,-1562
2101566,-1397
2101571,-1427
2101589,-1608
2101611,-1798
2101652,-1872
2101690,-1809
2101696,-1489
2101736,-1517
2101741,-1738
2101761,-1962
2101783,-1900
2101823,-1529
2101828,-1153
2101847,-1139
2101868,-1487
2102007,-1816
2102051,-1875
2102092,-1607
2102098,-2021
2102197,-2124
2102239,-1926
2102281,-1924
2102287,-1659
2102327,-1610
2102332,-1454
2102351,-1239
2102372,-1179
2102413,-1373
2102418,-1669
2102438,-1804
2102458,-1719
2102498,-1604
2102503,-1645
2102524,-1818
2102545,-1905
2102586,-1759
2102591,-1501
2102609,-1397
2102631,-1527
2102704,-1726
2102714,-1459
2102754,-1440
2102760,-1506
2102780,-1500
2102801,-1334
2102842,-1108
2102847,-1015
2102865,-1185
2102887,-1564
2102927,-1939
2102933,-2111
2102951,-2061
2102973,-1964
2103013,-2039
2103018,-2268
2103037,-2397
2103145,-2193
2103224,-1448
2103230,-1512
2103271,-1618
2103288,-2036
2103310,-2115
2103351,-1912
2103356,-1486
2103374,-1139
2103396,-1163
2103436,-1531
2103441,-1845
2103460,-1748
2103482,-1346
2103522,-1073
2103527,-1226
2103547,-1637
2103567,-1850
2103641,-1685
2103652,-1370
2103693,-1487
2103698,-1461
2103716,-1365
2103739,-1354
2103779,-1446
2103785,-1495
2103802,-1437
2103824,-1375
2103865,-1474
2103870,-1761
2103888,-2063
2103910,-2156
2103950,-1991
2103955,-1747
2103976,-1669
2103997,-1828
2104038,-1994
2104043,-1879
2104061,-1503
2104083,-1213
2104123,-1286
2104129,-1578
2104147,-1659
2104169,-1366
2104308,-1050
2104352,-867
2104393,-1587
2104399,-1194
2104419,-1177
2104459,-1579
2104465,-1960
2104485,-1914
2104523,-1615
2104563,-1511
2104569,-1621
2104591,-1160
2104631,-643
2104636,-668
2104655,-1286
2104676,-1844
2104717,-1763
2104722,-1211
2104741,-894
2104762,-1214
2104803,-1820
2104808,-2037
2104828,-1666
2104850,-1162
2104890,-1034
2104895,-1290
2104914,-1529
2104935,-1473
2104976,-1281
2104981,-1283
2104999,-1515
2105021,-1685
2105062,-1592
2105067,-1397
2105085,-1372
2105107,-1491
2105147,-1436
2105153,-1031
2105171,-559
2105193,-485
2105233,-853
2105238,-1220
2105276,-1164
2105281,-854
2105322,-816
2105342,-1678
2105452,-1678
2105530,-1591
2105572,-851
2105593,-895
2105614,-747
2105654,-761
2105659,-858
2105679,-793
2105701,-558
2105741,-456
2105746,-671
2105764,-956
2105786,-914
2105826,-468
2105831,-11
2105851,-3
2105872,-452
2105913,-932
2105918,-1032
2105936,-758
2105958,-486
2105998,-513
2106003,-851
2106023,-1236
2106045,-1440
2106085,-1435
2106090,-1318
2106109,-1196
2106130,-1114
2106170,-1090
2106176,-1182
2106196,-1363
2106234,-1516
2106274,-1521
2106280,-1406
2106302,-1504
2106342,-1628
2106347,-1612
2106367,-1459
2106387,-1350
2106427,-1414
2106432,-1553
2106452,-1537
2106474,-1298
2106612,-1057
2106656,-1260
2106697,-1553
2106703,-1830
2106724,-1559
2106764,-1377
2106769,-1514
2106790,-1758
2106811,-1736
2106851,-1409
2106856,-1106
2106875,-1131
2106896,-1345
2106936,-1404
2106942,-1211
2106962,-1023
2106983,-1066
2107023,-1233
2107028,-1286
2107047,-1165
2107069,-1069
2107109,-1108
2107147,-1138
2107154,-628
2107194,-360
2107200,-270
2107219,-229
2107241,-55
2107281,293
2107286,738
2107304,1200
2107326,1645
2107367,2100
2107372,2627
2107390,3312
2107412,4188
2107453,5085
2107458,5707
2107477,5923
2107499,5935
2107541,5997
2107562,5936
2107583,5301
2107626,4335
2107647,2883
2107757,2390
2107839,-2001
2107883,-3356
2107898,-2675
2107919,-2358
2107962,-2263
2107982,-2015
2108004,-1709
2108046,-1438
2108067,-1460
2108088,-1756
2108131,-2101
2108136,-2330
2108174,-2373
2108217,-2385
2108237,-2893
2108259,-2889
2108301,-2617
2108322,-2195
2108343,-2165
2108385,-2018
2108390,-1749
2108409,-1624
2108431,-1784
2108473,-2020
2108493,-1750
2108515,-1596
2108557,-1831
2108578,-2412
2108599,-2026
2108642,-1405
2108647,-1083
2108665,-1271
2108685,-1670
2108728,-1850
2108733,-1710
2108751,-1523
2108773,-1572
2108914,-1817
2108959,-1376
2109003,-765
2109022,-1152
2109065,-1637
2109086,-1425
2109107,-994
2109150,-876
2109170,-1321
2109208,-1289
2109251,-1050
2109257,-860
2109277,-854
2109319,-713
2109324,-526
2109343,-524
2109364,-763
2109407,-1015
2109427,-866
2109449,-748
2109491,-857
2109512,-1181
2109533,-1028
2109576,-695
2109596,-86
2109618,3
2109660,-78
2109665,-234
2109683,-313
2109705,-250
2109748,-143
2109768,-298
2109790,-435
2109832,-390
2109853,-63
2109874,-62
2109916,-106
2109922,-78
2109940,14
2110051,49
2110134,-73
2110178,910
2110189,703
2110211,456
2110253,516
2110274,1051
2110296,814
2110371,261
2110379,441
2110422,831
2110444,543
2110466,330
2110508,367
2110529,647
2110550,652
2110593,604
2110614,343
2110635,246
2110678,383
2110698,1019
2110720,889
2110763,414
2110783,-29
2110806,103
2110849,-7
2110869,-822
2110891,-879
2110933,-643
2110954,-635
2110975,-981
2111018,-1214
2111039,-1101
2111060,-1124
2111201,-1359
2111247,-1887
2111291,-1822
2111310,-2086
2111353,-2269
2111373,-1571
2111395,-1380
2111437,-1652
2111443,-2032
2111460,-2087
2111481,-1806
2111556,-1609
2111566,-2322
2111609,-2166
2111630,-1845
2111651,-2013
2111694,-2216
2111714,-2151
2111736,-2021
2111778,-2045
2111799,-2416
2111821,-2354
2111863,-2010
2111884,-1474
2111906,-1757
2111948,-2153
2111969,-1982
2111991,-1698
2112033,-1825
2112054,-2621
2112075,-2375
2112118,-1727
2112140,-1277
2112162,-1520
2112204,-1503
2112225,-851
2112335,-982
2112418,-1281
2112462,-1583
2112475,-1057
2112496,-1199
2112539,-1369
2112560,-1059
2112581,-1003
2112624,-1304
2112662,-1780
2112668,-1446
2112710,-1022
2112731,-953
2112751,-1062
2112793,-1050
2112798,-990
2112817,-986
2112838,-998
2112881,-977
2112901,-1204
2112923,-1515
2112965,-1672
2112986,-1184
2113087,-1036
2113132,-928
2113175,-1227
2113218,-1315
2113237,-1109
2113259,-1278
2113302,-1459
2113322,-1301
2113344,-1030
2113485,-841
2113531,-901
2113574,-1260
2113593,-1256
2113636,-1554
2113658,-1581
2113678,-1061
2113720,-641
2113726,-643
2113744,-937
2113765,-1103
2113808,-901
2113846,-244
2113852,-422
2113894,-923
2113913,-1373
2113935,-1043
2113977,-772
2113998,-1274
2114020,-1449
2114062,-1209
2114084,-764
2114106,-976
2114148,-1132
2114169,-724
2114190,-649
2114233,-795
2114253,-937
2114275,-876
2114317,-884
2114338,-1102
2114360,-1193
2114402,-1228
2114407,-1172
2114425,-1027
2114446,-946
2114488,-1061
2114493,-1292
2114511,-1357
2114622,-1094
2114704,-1174
2114748,-689
2114761,-483
2114782,-528
2114825,-745
2114846,-665
2114867,-275
2114942,-78
2114952,-913
2114994,-817
2115015,-656
2115037,-883
2115079,-1129
2115100,-1284
2115121,-1219
2115164,-974
2115184,-341
2115206,-506
2115248,-962
2115253,-1266
2115272,-1091
2115292,-652
2115334,-448
2115339,-668
2115358,-1015
2115379,-1118
2115422,-949
2115442,-747
2115464,-763
2115506,-667
2115527,-568
2115548,-746
2115591,-834
2115596,-697
2115614,-489
2115636,-499
2115776,-802
2115822,-1562
2115866,-1050
2115885,-596
2115927,-565
2115948,-401
2115969,-447
2116045,-712
2116054,-1230
2116097,-1192
2116118,-1535
2116139,-1650
2116181,-1460
2116202,-684
2116224,-618
2116266,-796
2116288,-828
2116310,-557
2116352,-413
2116373,-862
2116394,-933
2116437,-711
2116457,-557
2116479,-932
2116521,-1256
2116543,-1160
2116564,-1162
2116606,-1377
2116611,-1587
2116628,-1526
2116650,-1207
2116692,-886
2116715,-692
2116736,-623
2116779,-535
2116799,-846
2116911,-1171
2116994,-1355
2117039,-665
2117049,-1162
2117071,-1071
2117114,-661
2117134,-609
2117172,-1040
2117215,-1122
2117220,-138
2117240,-97
2117283,-599
2117305,-1072
2117326,-628
2117369,-272
2117389,-647
2117411,-882
2117453,-898
2117474,-727
2117495,-694
2117538,-731
2117560,-1049
2117580,-1108
2117622,-985
2117627,-875
2117646,-998
2117667,-1263
2117710,-1353
2117730,-1012
2117752,-1141
2117794,-1392
2117815,-1004
2117837,-754
2117879,-920
2117900,-1148
2117921,-691
2118063,-384
2118108,-725
2118152,-1174
2118171,-1321
2118214,-1223
2118236,-416
2118274,-363
2118317,-696
2118323,-870
2118343,-404
2118385,-82
2118406,-847
2118427,-1346
2118470,-1372
2118491,-570
2118512,-517
2118554,-742
2118559,-869
2118578,-665
2118599,-359
2118640,-323
2118645,-620
2118663,-915
2118685,-903
2118725,-695
2118730,-678
2118749,-956
2118770,-1173
2118810,-981
2118816,-476
2118835,-135
2118857,-229
2118897,-532
2118902,-627
2118921,-383
2118942,-114
2118982,-160
2118987,-491
2119007,-765
2119029,-688
2119069,-331
2119074,-39
2119092,-80
2119229,-400
2119308,-310
2119350,-168
2119364,-285
2119404,-473
2119409,-463
2119428,-322
2119449,-260
2119489,-369
2119495,-552
2119514,-676
2119536,-746
2119576,-861
2119581,-1029
2119601,-1150
2119621,-1186
2119661,-1187
2119667,-1198
2119687,-1184
2119708,-1129
2119748,-1079
2119753,-1104
2119772,-1142
2119794,-1026
2119834,-742
2119839,-538
2119859,-692
2119880,-1141
2119920,-1502
2119925,-1458
2119944,-1100
2119966,-813
2120005,-838
2120011,-1038
2120030,-1105
2120188,-937
2120365,-1263
2120446,-569
2120488,-235
2120529,-199
2120550,879
2120590,1390
2120595,1747
2120615,2061
2120635,2525
2120675,3225
2120680,4040
2120701,4700
2120722,5010
2120763,5065
2120786,5606
2120807,6098
2120849,6188
2120870,4664
2120892,3781
2120934,3217
2120955,1937
2120976,811
2121018,-355
2121023,-1174
2121042,-1579
2121063,-1804
2121105,-2099
2121126,-2755
2121148,-2724
2121190,-2458
2121211,-2144
2121232,-2201
2121275,-2156
2121296,-1591
2121317,-1414
2121393,-1483
2121500,-1859
2121583,-2072
2121628,-1533
2121634,-1379
2121653,-1527
2121695,-1698
2121716,-1838
2121738,-1808
2121781,-1739
2121800,-1716
2121822,-1765
2121864,-1686
2121885,-1185
2121907,-1137
2121949,-1307
2121970,-1499
2121991,-1376
2122034,-1346
2122039,-1475
2122058,-1558
2122079,-1389
2122121,-1080
2122142,-1037
2122164,-1157
2122206,-985
2122227,-514
2122248,-854
2122290,-1415
2122313,-1574
2122334,-1279
2122376,-1226
2122397,-1522
2122419,-1213
2122494,-699
2122502,-946
2122643,-1103
2122689,-1099
2122732,-108
2122753,-256
2122795,-501
2122816,-376
2122837,-179
2122880,-221
2122902,-933
2122922,-1062
2122964,-833
2122970,-451
2122988,-239
2123009,-328
2123052,-553
2123072,-291
2123094,138
2123136,368
2123157,-24
2123178,-181
2123221,-51
2123225,265
2123244,458
2123265,346
2123308,22
2123328,-199
2123350,6
2123392,169
2123414,152
2123436,243
2123478,412
2123499,371
2123520,300
2123563,478
2123583,1024
2123605,865
2123779,529
2123864,746
2123932,663
2123977,-90
2124020,-191
2124064,-626
2124083,-318
2124105,-141
2124147,-278
2124152,-649
2124171,-922
2124192,-908
2124235,-772
2124255,-1217
2124277,-1625
2124319,-1779
2124340,-1414
2124362,-1354
2124404,-1441
2124425,-1557
2124446,-1633
2124489,-1853
2124510,-2371
2124531,-2475
2124574,-2541
2124595,-2705
2124617,-2695
2124659,-2605
2124680,-2342
2124702,-2195
2124745,-2121
2124766,-2336
2124787,-2494
2124929,-2581
2124975,-3027
2125020,-2945
2125058,-2292
2125102,-2526
2125121,-2419
2125165,-2265
2125185,-2405
2125205,-2369
2125248,-2190
2125269,-2360
2125291,-2709
2125334,-2782
2125355,-1979
2125376,-1931
2125419,-2346
2125440,-2771
2125462,-2273
2125505,-1739
2125524,-1780
2125546,-2029
2125590,-2039
2125610,-1802
2125632,-1935
2125675,-2165
2125695,-2237
2125715,-2166
2125759,-2276
2125779,-2720
2125801,-2503
2125844,-1991
2125865,-1716
2125887,-2169
2125930,-2456
2125951,-1691
2126063,-1300
2126146,-1994
2126382,-1966
2126470,-1359
2126554,-1795
2126599,-1462
2126613,-1729
2126635,-1813
2126678,-1734
2126698,-1463
2126720,-1579
2126763,-1805
2126784,-1642
2126805,-1284
2126848,-1134
2126869,-1522
2126891,-1545
2126933,-1379
2126954,-1486
2126974,-1738
2127017,-1750
2127038,-1238
2127059,-1237
2127201,-1410
2127247,-1514
2127291,-1430
2127310,-1083
2127353,-694
2127374,-1236
2127395,-1717
2127438,-1684
2127459,-1037
2127480,-1315
2127523,-1763
2127544,-1430
2127565,-966
2127641,-839
2127649,-1086
2127692,-942
2127714,-977
2127734,-970
2127776,-804
2127781,-602
2127800,-555
2127821,-721
2127864,-941
2127884,-928
2127906,-874
2127948,-1071
2127969,-1744
2127991,-1659
2128033,-1271
2128054,-637
2128076,-627
2128118,-661
2128139,-580
2128160,-451
2128203,-374
2128225,-814
2128335,-1176
2128418,-966
2128462,-820
2128475,-702
2128495,-542
2128537,-592
2128542,-830
2128561,-944
2128582,-761
2128625,-479
2128645,-699
2128667,-906
2128709,-860
2128748,-771
2128753,-960
2128795,-986
2128815,-437
2128836,-558
2128878,-1004
2128884,-1302
2128902,-1108
2128924,-650
2128966,-455
2128987,-1115
2129008,-1216
2129051,-958
2129072,-519
2129093,-577
2129136,-653
2129156,-720
2129178,-770
2129220,-740
2129243,-653
2129262,-871
2129305,-1130
2129310,-1165
2129327,-915
2129348,-651
2129489,-669
2129535,-717
2129578,-743
2129599,-819
2129641,-1000
2129661,-820
2129683,-810
2129725,-961
2129746,-716
2129767,-384
2129810,-374
2129849,-1046
2129854,-1031
2129897,-855
2129916,-1338
2129937,-1647
2129980,-1545
2130001,-918
2130022,-995
2130065,-1149
2130086,-843
2130107,-643
2130150,-635
2130170,-731
2130192,-675
2130235,-650
2130257,-761
2130277,-835
2130319,-913
2130325,-983
2130343,-1026
2130363,-1034
2130406,-1039
2130428,-1080
2130449,-960
2130492,-755
2130512,-688
2130623,-820
2130705,-434
2130750,-488
2130762,-954
2130784,-1292
2130826,-1432
2130847,-1238
2130869,-1146
2130911,-1141
2130932,-1124
2130970,-898
2131013,-573
2131018,-422
2131038,-606
2131081,-692
2131086,-630
2131104,-596
2131126,-716
2131168,-887
2131189,-753
2131210,-624
2131253,-615
2131273,-501
2131295,-364
2131337,-324
2131358,-290
2131381,-101
2131423,3
2131444,-415
2131465,-524
2131508,-417
2131528,-389
2131550,-480
2131593,-370
2131613,-44
2131635,-228
2131776,-410
2131821,-1043
2131864,-417
2131885,-128
2131925,-214
2131930,-281
2131950,-257
2131972,-90
2132012,86
2132017,-15
2132037,-515
2132075,-1126
2132115,-1367
2132121,-731
2132142,-661
2132182,-920
2132187,-1126
2132207,-1022
2132229,-778
2132269,-712
2132274,-879
2132293,-1037
2132314,-1000
2132354,-862
2132360,-823
2132380,-893
2132401,-943
2132441,-881
2132446,-757
2132465,-629
2132486,-484
2132526,-376
2132531,-479
2132551,-870
2132573,-1356
2132613,-1587
2132618,-1435
2132637,-1138
2132658,-1003
2132698,-1072
2132703,-1139
2132724,-1027
2132745,-814
2132785,-645
2132790,-486
2132810,-264
2132947,-77
2133025,-338
2133067,-250
2133080,1012
2133120,1327
2133125,1497
2133145,1783
2133167,2267
2133208,2863
2133213,3444
2133231,3953
2133253,4430
2133294,4934
2133315,6198
2133337,6708
2133379,6788
2133384,6432
2133401,5981
2133423,5762
2133466,5676
2133486,4062
2133508,2485
2133551,1152
2133572,72
2133593,-412
2133635,-1167
2133656,-2259
2133678,-2238
2133720,-2061
2133741,-1833
2133763,-1695
2133805,-1523
2133828,-1543
2133848,-1712
2133890,-1756
2133896,-1580
2133934,-1364
2133977,-1635
2134083,-1920
2134129,-1504
2134173,-1401
2134184,-1733
2134227,-1592
2134248,-801
2134270,-886
2134313,-1241
2134333,-1026
2134355,-546
2134398,-425
2134419,-1138
2134440,-1216
2134484,-993
2134503,-822
2134526,-889
2134569,-820
2134588,-629
2134609,-789
2134652,-947
2134673,-699
2134773,-640
2134819,-1126
2134863,-758
2134907,-936
2134924,-1002
2134946,-941
2134989,-848
2135009,-802
2135031,-788
2135073,-713
2135094,-747
2135213,-914
2135295,-739
2135372,39
2135417,-29
2135427,83
2135449,46
2135491,117
2135513,545
2135535,552
2135578,303
2135598,-54
2135620,183
2135663,395
2135683,-245
2135705,-544
2135748,-344
2135768,381
2135790,247
2135832,90
2135853,609
2135875,747
2135918,522
2135938,198
2135960,374
2136002,506
2136023,506
2136045,666
2136088,893
2136108,1103
2136130,1117
2136173,1159
2136194,1210
2136215,1167
2136357,1090
2136403,1010
2136447,769
2136464,532
2136507,474
2136528,576
2136550,500
2136593,344
2136631,242
2136636,229
2136679,77
2136698,-400
2136720,-561
2136763,-696
2136783,-907
2136805,-911
2136848,-884
2136868,-911
2136890,-939
2136933,-978
2136953,-1288
2136975,-1478
2137018,-1537
2137038,-1313
2137060,-1344
2137103,-1587
2137123,-1993
2137145,-1850
2137188,-1621
2137209,-1666
2137230,-1933
2137273,-2185
2137293,-1879
2137315,-1260
2137358,-690
2137378,-822
2137490,-1152
2137573,-1302
2137618,-522
2137629,-929
2137650,-957
2137693,-519
2137714,254
2137752,-138
2137794,-798
2137800,-1072
2137820,-680
2137863,-501
2137884,-1197
2137905,-1352
2137948,-1061
2137969,-424
2137990,-602
2138033,-890
2138053,-885
2138075,-839
2138118,-946
2138140,-1001
2138160,-743
2138203,-492
2138225,-513
2138246,-594
2138289,-579
2138310,-374
2138331,-321
2138374,-371
2138395,-687
2138416,-699
2138459,-551
2138479,-351
2138501,-486
2138642,-642
2138688,-1060
2138732,-814
2138751,-869
2138794,-1072
2138815,-797
2138836,-573
2138879,-529
2138899,-511
2138937,-369
2138980,-302
2138986,-482
2139006,-448
2139049,-318
2139069,-344
2139091,-463
2139133,-480
2139154,-279
2139175,-187
2139218,-58
2139240,122
2139262,-161
2139304,-584
2139325,-400
2139347,102
2139389,218
2139410,-667
2139431,-597
2139474,5
2139494,381
2139516,-254
2139559,-806
2139579,-687
2139601,-579
2139643,-739
2139664,-988
2139776,-777
2139859,-178
2139904,-582
2139915,-560
2139936,-564
2139979,-754
2139999,-1185
2140021,-1179
2140064,-1112
2140103,-888
2140108,-611
2140150,-321
2140170,-125
2140191,-100
2140234,-31
2140256,-254
2140277,-616
2140320,-901
2140341,-926
2140362,-913
2140405,-933
2140426,-566
2140447,-251
2140490,-81
2140510,-282
2140532,-419
2140575,-468
2140595,-536
2140617,-681
2140659,-810
2140680,-690
2140702,-557
2140744,-585
2140765,-845
2140787,-730
2140928,-543
2140974,321
2141018,-311
2141037,184
2141080,245
2141100,-400
2141122,-569
2141165,-465
2141186,73
2141207,170
2141250,74
2141270,-135
2141308,49
2141351,277
2141357,56
2141377,-222
2141420,-300
2141440,-174
2141462,-252
2141505,-350
2141525,-346
2141547,-437
2141590,-584
2141610,-294
2141632,-1
2141674,-30
2141697,-737
2141717,-715
2141759,-362
2141780,-126
2141803,-394
2141846,-608
2141867,-379
2141888,-99
2141931,121
2141951,45
2142061,-201
2142145,-298
2142190,-331
2142201,-902
2142222,-868
2142265,-546
2142286,-235
2142307,-304
2142350,-298
2142372,-298
2142394,-415
2142436,-443
2142457,-392
2142495,-669
2142538,-1017
2142544,-734
2142562,-219
2142605,61
2142627,-248
2142649,-409
2142691,-425
2142712,-362
2142734,-430
2142776,-614
2142797,-1100
2142819,-1022
2142862,-669
2142882,-254
2142904,-419
2142946,-502
2142967,-86
2142989,-77
2143031,-320
2143052,-479
2143073,-305
2143215,-283
2143261,-748
2143305,-924
2143324,-582
2143366,-397
2143387,-344
2143409,-342
2143451,-232
2143472,-90
2143494,-249
2143536,-463
2143557,-549
2143578,-514
2143621,-581
2143642,-846
2143680,-852
2143722,-754
2143728,-459
2143748,-317
2143791,-198
2143811,-86
2143834,-56
2143877,-7
2143897,-101
2143919,-278
2143961,-462
2143982,-694
2144004,-755
2144046,-731
2144067,-452
2144088,-451
2144131,-608
2144152,-641
2144173,-353
2144216,-116
2144237,-282
2144349,-431
2144431,-125
2144474,-511
2144487,-103
2144508,-340
2144548,-599
2144554,-543
2144573,-188
2144595,136
2144635,196
2144640,86
2144660,67
2144681,215
2144721,385
2144727,437
2144745,419
2144783,469
2144823,622
2144831,767
2144852,637
2144893,492
2144898,435
2144916,472
2144938,509
2144978,480
2144983,374
2145002,282
2145023,308
2145064,444
2145069,575
2145089,585
2145110,475
2145151,323
2145156,194
2145174,85
2145196,-19
2145236,-150
2145241,-330
2145261,-566
2145283,-804
2145323,-915
2145328,-832
2145346,-662
2145368,-584
2145507,-643
2145551,102
2145615,-142
2145658,-142
2145698,-533
2145704,-441
2145744,-288
2145767,-312
2145787,-382
2145827,-383
2145832,-339
2145870,-355
2145875,-459
2145915,-525
2145937,-265
2145959,-133
2145999,-131
2146004,-154
2146023,-54
2146044,137
2146084,223
2146089,64
2146109,-188
2146131,-201
2146171,166
2146176,696
2146194,1025
2146216,1034
2146256,1031
2146261,1437
2146281,2327
2146303,3321
2146344,3959
2146349,4139
2146367,4225
2146389,4702
2146430,5697
2146436,6846
2146452,7631
2146474,7783
2146517,7493
2146539,7009
2146647,6821
2146730,2011
2146775,-1052
2146789,-1420
2146810,-1653
2146886,-1727
2146894,-1132
2146937,-1082
2146957,-723
2146979,-576
2147021,-701
2147042,-1195
2147064,-1150
2147106,-1002
2147127,-1082
2147149,-1199
2147191,-1187
2147212,-917
2147234,-828
2147277,-818
2147298,-996
2147319,-1081
2147362,-1068
2147383,-968
2147404,-946
2147447,-773
2147468,-48
2147489,22
2147531,-192
2147552,-240
2147574,23
2147616,42
2147621,-317
2147639,-716
2147661,-784
2147801,-532
2147847,504
2147891,-287
2147910,-206
2147952,-269
2147957,-538
2147975,-802
2148013,-850
2148056,-702
2148061,-333
2148081,-292
2148124,-346
2148144,-459
2148166,-348
2148208,-177
2148213,-144
2148232,-273
2148253,-330
2148295,-54
2148316,833
2148337,775
2148380,488
2148400,604
2148422,729
2148464,470
2148469,19
2148488,-140
2148509,137
2148551,472
2148572,277
2148593,303
2148636,703
2148658,1150
2148680,827
2148722,521
2148742,437
2148764,301
2148806,147
2148827,519
2148938,654
2149021,1160
2149065,338
2149078,1382
2149099,1263
2149142,975
2149181,1162
2149186,1454
2149228,1573
2149248,1214
2149269,982
2149312,861
2149332,1022
2149354,1168
2149396,1291
2149417,1378
2149439,1317
2149481,1213
2149502,1229
2149524,1347
2149566,1364
2149587,985
2149609,841
2149651,881
2149656,1036
2149673,1140
2149695,1055
2149737,804
2149758,529
2149781,651
2149824,652
2149844,-132
2149866,-374
2149908,-230
2149929,-169
2149950,-686
2150091,-1121
2150137,-1063
2150181,-484
2150200,-865
2150242,-1107
2150247,-1224
2150266,-1215
2150304,-1222
2150346,-1364
2150352,-1778
2150372,-1719
2150415,-1510
2150436,-1535
2150457,-1714
2150500,-1679
2150521,-1128
2150542,-1056
2150585,-1179
2150606,-1157
2150627,-1063
2150670,-1198
2150691,-1836
2150712,-1803
2150755,-1497
2150776,-1368
2150797,-1763
2150840,-2062
2150861,-1429
2150882,-1018
2150925,-1075
2150946,-1789
2150967,-1634
2151010,-1191
2151031,-1001
2151052,-1227
2151095,-1255
2151116,-873
2151228,-838
2151310,-1236
2151355,-1184
2151366,-961
2151404,-580
2151446,-481
2151452,-1041
2151472,-977
2151514,-683
2151535,-800
2151557,-1057
2151599,-1072
2151604,-913
2151622,-850
2151642,-944
2151685,-970
2151690,-720
2151708,-291
2151730,17
2151772,-32
2151792,-714
2151814,-708
2151856,-358
2151879,-206
2151900,-762
2151942,-1183
2151963,-560
2151985,-271
2152027,-468
2152048,-933
2152069,-813
2152112,-820
2152132,-1281
2152154,-1069
2152197,-673
2152217,-811
2152240,-1006
2152381,-728
2152427,-775
2152471,-868
2152490,-990
2152565,-422
2152573,-329
2152616,-598
2152638,-533
2152659,-673
2152702,-916
2152722,-768
2152744,-631
2152786,-800
2152807,-1032
2152828,-654
2152871,-303
2152893,-598
2152915,-675
2152957,-444
2152978,-306
2152999,-638
2153041,-826
2153062,-719
2153084,-979
2153126,-1371
2153147,-1151
2153168,-720
2153211,-558
2153216,-624
2153234,-595
2153256,-346
2153298,-81
2153319,2
2153340,29
2153382,-42
2153404,-1054
2153516,-1427
2153599,-857
2153643,965
2153654,732
2153692,1002
2153734,1279
2153740,1052
2153760,884
2153803,918
2153823,1121
2153845,1132
2153888,1193
2153908,1486
2153930,1522
2153973,1434
2153994,1145
2154015,987
2154058,845
2154079,776
2154100,846
2154143,928
2154164,1136
2154185,1207
2154228,1197
2154249,1054
2154270,996
2154313,841
2154334,428
2154355,605
2154398,1068
2154419,1500
2154440,1292
2154483,1188
2154504,1575
2154526,1673
2154667,1586
2154713,619
2154757,1039
2154776,631
2154819,762
2154840,966
2154861,925
2154937,911
2154945,520
2154988,557
2155009,1301
2155030,1236
2155073,623
2155094,-322
2155115,-49
2155158,317
2155178,157
2155200,-4
2155242,23
2155263,231
2155284,449
2155327,813
2155349,1027
2155371,591
2155413,216
2155434,700
2155456,1044
2155498,980
2155519,357
2155540,357
2155583,531
2155604,557
2155625,370
2155668,176
2155688,19
2155800,178
2155882,30
2155927,428
2155939,-86
2155961,36
2156003,154
2156024,-80
2156045,-53
2156087,156
2156108,245
2156131,49
2156173,-79
2156212,-134
2156217,-198
2156259,-236
2156278,-202
2156300,-227
2156342,-186
2156365,248
2156464,393
2156508,551
2156552,720
2156595,129
2156614,546
2156636,487
2156678,204
2156683,-18
2156702,10
2156723,164
2156765,168
2156786,-209
2156808,-143
2156948,126
2156994,18
2157038,-271
2157059,-487
2157101,-38
2157122,426
2157143,146
2157186,6
2157206,699
2157228,831
2157270,599
2157291,467
2157312,716
2157355,724
2157377,207
2157398,407
2157441,783
2157462,512
2157499,147
2157541,180
2157547,627
2157569,393
2157609,118
2157614,191
2157633,525
2157654,661
2157694,359
2157699,-103
2157719,-312
2157741,-212
2157781,-120
2157786,-324
2157804,-754
2157826,-1084
2157866,-1094
2157871,-873
2157891,-655
2157913,-565
2157953,-550
2157958,-446
2157976,-197
2158088,89
2158166,-438
2158208,-826
2158226,-723
2158249,-659
2158289,-603
2158294,-528
2158312,-446
2158334,-399
2158374,-402
2158379,-372
2158399,-253
2158420,-138
2158460,-190
2158465,-439
2158504,-666
2158509,-606
2158549,-273
2158570,-31
2158591,-284
2158631,-385
2158636,-145
2158656,248
2158677,501
2158718,595
2158723,768
2158743,1116
2158764,1514
2158804,1845
2158810,2233
2158828,2894
2158850,3804
2158891,4639
2158896,5194
2158914,5610
2158936,6141
2158978,6755
2159000,6991
2159020,6490
2159062,5930
2159068,5428
2159085,4861
2159106,4103
2159247,3216
2159293,-1190
2159336,-1888
2159357,-2240
2159399,-2060
2159420,-1438
2159442,-1148
2159484,-930
2159642,-764
2159726,-1141
2159771,-878
2159776,-811
2159819,-968
2159838,-1026
2159860,-771
2159902,-540
2159924,-667
2159946,-775
2159989,-756
2160009,-800
2160031,-928
2160073,-969
2160094,-891
2160115,-957
2160158,-1006
2160179,-746
2160200,-617
2160243,-625
2160263,-792
2160373,-799
2160456,-911
2160501,204
2160513,-460
2160535,-556
2160578,-106
2160598,579
2160620,433
2160662,338
2160667,386
2160685,356
2160707,136
2160749,-54
2160770,272
2160791,425
2160833,400
2160871,368
2160877,485
2160919,390
2160939,252
2160961,447
2161003,551
2161008,367
2161027,22
2161048,-150
2161090,48
2161111,728
2161132,610
2161175,232
2161197,19
2161218,303
2161260,514
2161281,429
2161303,522
2161345,756
2161366,859
2161387,701
2161528,675
2161574,643
2161618,1555
2161638,1877
2161681,1705
2161702,1276
2161724,1258
2161766,1346
2161787,1433
2161809,1323
2161851,1224
2161872,1560
2161894,1879
2161936,2013
2161957,1442
2161979,1084
2162022,931
2162042,922
2162080,755
2162122,547
2162128,727
2162148,984
2162191,1048
2162212,645
2162233,592
2162275,680
2162296,514
2162318,192
2162360,-81
2162365,-177
2162383,-102
2162405,65
2162447,221
2162468,47
2162489,-300
2162531,-578
2162554,-488
2162662,-430
2162744,-1104
2162788,-1695
2162803,-1619
2162824,-1631
2162867,-1651
2162887,-1367
2162909,-1200
2162951,-1207
2162974,-1384
2162995,-1298
2163038,-1224
2163058,-1627
2163080,-1839
2163122,-1811
2163143,-1638
2163165,-1828
2163408,-2006
2163495,-1196
2163578,-963
2163584,-1192
2163626,-1262
2163642,-763
2163664,-682
2163804,-931
2163850,-1263
2163894,-1427
2163913,-1532
2163956,-1511
2163961,-1367
2163979,-1210
2164001,-1148
2164043,-1162
2164064,-865
2164085,-534
2164128,-355
2164148,-902
2164170,-1163
2164212,-1025
2164233,-436
2164254,-686
2164297,-1131
2164302,-1249
2164320,-832
2164342,-248
2164384,-39
2164404,-585
2164426,-541
2164468,-142
2164491,461
2164512,253
2164554,-229
2164575,-1140
2164613,-1133
2164655,-912
2164661,-1196
2164681,-1702
2164724,-1900
2164745,-904
2164766,-423
2164809,-297
2164829,-407
2164941,-390
2165024,-765
2165068,-938
2165079,-910
2165101,-1142
2165143,-1090
2165148,-690
2165165,-294
2165187,-233
2165229,-406
2165252,-117
2165273,259
2165315,301
2165336,-430
2165358,-543
2165400,-372
2165421,-156
2165442,-299
2165485,-435
2165507,-318
2165528,-208
2165571,-199
2165591,-367
2165613,-430
2165655,-521
2165676,-677
2165697,-493
2165773,-173
2165783,-521
2165825,-502
2165846,346
2165867,238
2165909,-371
2165930,-977
2165952,-535
2166092,-126
2166138,-336
2166182,-354
2166202,-289
2166245,-249
2166265,-174
2166287,-37
2166329,11
2166334,-160
2166352,-433
2166374,-527
2166416,-342
2166437,-165
2166458,-412
2166500,-503
2166521,-26
2166544,-129
2166586,-460
2166607,-94
2166628,394
2166670,391
2166691,-257
2166714,112
2166756,688
2166777,282
2166798,-290
2166840,-375
2166863,62
2166884,-208
2166926,-528
2166965,40
2166970,435
2167012,424
2167032,104
2167054,261
2167096,370
2167116,-239
2167228,-450
2167330,-331
2167373,-370
2167419,-458
2167461,-196
2167472,-488
2167514,-609
2167535,-414
2167557,-188
2167599,-21
2167621,-102
2167642,-206
2167684,-165
2167705,191
2167727,212
2167769,104
2167791,-43
2167812,-127
2167854,-273
2167875,-220
2167896,16
2167938,38
2167943,-279
2167962,-661
2167983,-694
2168025,-359
2168046,-73
2168068,-380
2168110,-560
2168132,-100
2168153,19
2168229,-174
2168237,-517
2168377,-405
2168423,-333
2168467,-1016
2168486,-428
2168529,-238
2168534,-267
2168552,-318
2168574,-219
2168616,-29
2168636,99
2168658,22
2168700,-173
2168705,-494
2168723,-812
2168745,-910
2168787,-764
2168808,-600
2168829,-687
2168872,-575
2168892,181
2168914,315
2168956,213
2168961,65
2168979,-74
2169000,-270
2169042,-518
2169064,-611
2169085,-523
2169127,-638
2169150,-1069
2169170,-859
2169212,-444
2169217,-171
2169235,-183
2169257,-269
2169332,-234
2169340,-83
2169383,-135
2169405,-171
2169515,-383
2169597,-659
2169642,-526
2169654,-228
2169676,-248
2169718,-282
2169739,-323
2169761,-307
2169803,-205
2169824,142
2169845,231
2169888,233
2169910,139
2169932,121
2169974,145
2169994,150
2170016,42
2170057,-88
2170062,-171
2170080,-232
2170102,-334
2170142,-465
2170147,-509
2170167,-398
2170187,-209
2170227,-127
2170232,-209
2170252,-315
2170274,-258
2170314,-42
2170319,114
2170339,24
2170360,-296
2170400,-634
2170438,-781
2170446,-545
2170485,-511
2170491,-682
2170509,-958
2170531,-1128
2170669,-1085
2170713,-1119
2170754,-1116
2170761,-1181
2170783,-1047
2170823,-888
2170828,-865
2170846,-1030
2170868,-1268
2170908,-1385
2170914,-1280
2170934,-1015
2170954,-735
2170994,-582
2170999,-563
2171019,-583
2171040,-501
2171081,-309
2171086,-164
2171106,-258
2171127,-574
2171167,-850
2171172,-844
2171191,-623
2171212,-470
2171253,-504
2171258,-463
2171278,-10
2171299,799
2171372,1510
2171382,2009
2171422,2672
2171427,3476
2171447,4005
2171469,4202
2171510,4425
2171515,4986
2171534,5771
2171555,6407
2171597,6695
2171618,6813
2171639,6859
2171682,6710
2171703,5344
2171811,4366
2171894,47
2171939,-1708
2171953,-1782
2171975,-1643
2172017,-1540
2172038,-1394
2172060,-1258
2172103,-1122
2172123,-975
2172145,-860
2172188,-759
2172209,-1110
2172230,-1364
2172274,-1369
2172293,-918
2172315,-885
2172358,-953
2172379,-818
2172400,-707
2172444,-730
2172482,-808
2172487,-678
2172531,-528
2172548,-738
2172570,-1017
2172614,-1176
2172634,-930
2172656,-870
2172699,-1037
2172719,-1320
2172740,-1131
2172784,-917
2172803,-945
2172825,-914
2172967,-772
2173014,-151
2173058,-510
2173076,-116
2173119,-366
2173138,-728
2173160,-525
2173203,-365
2173224,-324
2173245,-203
2173288,-98
2173309,-205
2173330,-138
2173373,0
2173394,-315
2173415,-535
2173458,-448
2173479,-25
2173500,-129
2173543,-266
2173564,-125
2173585,-122
2173628,-208
2173666,-80
2173671,-23
2173714,-117
2173734,-51
2173756,202
2173799,239
2173819,-323
2173841,-307
2173883,16
2173904,482
2173925,467
2173968,453
2173989,615
2174101,746
2174184,-9
2174229,737
2174240,503
2174261,1082
2174304,1547
2174325,976
2174346,636
2174389,763
2174410,1347
2174432,1237
2174475,1067
2174494,1207
2174516,1183
2174559,952
2174579,778
2174601,926
2174644,884
2174665,141
2174686,115
2174729,485
2174750,1086
2174771,881
2174814,581
2174835,388
2174856,356
2174932,263
2174940,-308
2174983,-701
2175004,-960
2175025,-575
2175068,-196
2175089,-408
2175110,-588
2175251,-491
2175298,-1382
2175342,-1640
2175360,-1014
2175403,-993
2175424,-1505
2175445,-1524
2175489,-1484
2175509,-2175
2175531,-2679
2175574,-2807
2175593,-2027
2175615,-1821
2175658,-1976
2175679,-2111
2175701,-1635
2175744,-1143
2175765,-1629
2175785,-2267
2175828,-2569
2175849,-2128
2175871,-2019
2175914,-2090
2175934,-1973
2175956,-1797
2175999,-1761
2176020,-1766
2176058,-1528
2176101,-1283
2176107,-1422
2176125,-1570
2176169,-1501
2176189,-1181
2176211,-1309
2176254,-1572
2176275,-1721
2176387,-1592
2176470,-1092
2176516,-1254
2176525,-1218
2176547,-1190
2176589,-1214
2176610,-1164
2176632,-1036
2176675,-911
2176695,-764
2176717,-726
2176760,-755
2176779,-1165
2176801,-1424
2176844,-1545
2176864,-1394
2176886,-1320
2176929,-1285
2176950,-1157
2176971,-1017
2177014,-852
2177035,-783
2177057,-1027
2177099,-1301
2177120,-1100
2177158,-784
2177201,-733
2177207,-1072
2177227,-800
2177270,-293
2177291,-351
2177312,-829
2177355,-959
2177376,-287
2177397,-396
2177539,-883
2177585,-728
2177629,-574
2177647,-686
2177690,-716
2177710,-546
2177732,-648
2177775,-820
2177795,-639
2177817,-499
2177860,-595
2177880,-859
2177902,-680
2177945,-512
2177965,-878
2177987,-1055
2178030,-979
2178050,-749
2178151,-879
2178196,-509
2178240,-539
2178284,-884
2178301,-535
2178323,-573
2178366,-812
2178386,-903
2178408,-595
2178484,-357
2178492,-705
2178535,-617
2178555,-436
2178669,-603
2178752,-363
2178796,-543
2178806,-834
2178827,-810
2178870,-731
2178890,-667
2178912,-616
2178954,-554
2178976,-603
2178998,-604
2179040,-536
2179061,-727
2179083,-1032
2179125,-1207
2179146,-948
2179167,-887
2179210,-946
2179230,-722
2179252,-362
2179294,-148
2179317,-486
2179338,-596
2179381,-471
2179401,-402
2179423,-773
2179465,-1066
2179486,-537
2179508,-196
2179550,-256
2179571,-640
2179592,-318
2179667,128
2179677,-280
2179818,-218
2179864,-678
2179907,-411
2179928,-772
2179970,-818
2179990,-642
2180011,-421
2180054,-235
2180059,-211
2180077,-328
2180099,-398
2180141,-275
2180162,118
2180183,-17
2180225,-286
2180246,-416
2180268,-310
2180310,-289
2180332,-395
2180354,-361
2180396,-261
2180417,-9
2180438,61
2180481,20
2180501,-202
2180523,-137
2180565,-35
2180587,-304
2180609,-457
2180651,-337
2180672,67
2180693,-161
2180736,-483
2180756,-321
2180778,-88
2180952,-122
2181036,-140
2181081,-446
2181090,-305
2181112,-259
2181154,-298
2181174,-155
2181196,47
2181238,73
2181243,-136
2181262,-343
2181283,-317
2181325,-127
2181346,-146
2181368,-285
2181410,-266
2181431,-215
2181452,-338
2181495,-313
2181517,100
2181539,-25
2181581,-322
2181602,-34
2181623,435
2181666,627
2181687,238
2181708,189
2181751,300
2181771,291
2181793,78
2181836,-155
2181856,-329
2181878,-204
2181920,-25
2181941,14
2181964,-66
2182105,-59
2182151,-379
2182227,-221
2182271,-447
2182277,-104
2182298,-182
2182340,-412
2182361,-734
2182382,-638
2182425,-459
2182445,-482
2182467,-618
2182509,-627
2182532,-423
2182553,-498
2182595,-660
2182616,-703
2182637,-651
2182678,-669
2182683,-728
2182702,-787
2182723,-823
2182763,-806
2182768,-648
2182788,-344
2182810,-72
2182849,-36
2182854,-248
2182874,-465
2182896,-475
2182935,-339
2182940,-276
2182960,-418
2182982,-670
2183021,-848
2183026,-867
2183046,-743
2183068,-526
2183107,-269
2183244,-37
2183323,1972
2183365,4335
2183381,5271
2183401,6158
2183443,6813
2183448,6887
2183466,6497
2183488,6055
2183530,5780
2183551,5000
2183573,4117
2183615,3055
2183636,1122
2183658,270
2183700,-512
2183722,-1416
2183744,-1557
2183786,-1671
2183807,-1816
2183828,-1671
2183871,-1452
2183891,-1429
2183913,-1527
2183955,-1487
2183976,-1223
2183998,-1236
2184039,-1290
2184045,-1240
2184063,-1075
2184085,-928
2184127,-928
2184147,-1134
2184169,-1132
2184211,-1066
2184216,-1027
2184254,-1090
2184395,-1481
2184441,-870
2184485,-399
2184505,-190
2184547,-536
2184568,-551
2184589,-255
2184631,-252
2184654,-1039
2184675,-1004
2184717,-519
2184738,-58
2184759,-462
2184802,-735
2184824,88
2184845,350
2184887,-10
2184908,-954
2184929,-669
2184971,-175
2184994,-411
2185015,-838
2185057,-834
2185078,-135
2185099,-300
2185142,-696
2185164,-311
2185185,169
2185228,138
2185248,-465
2185270,12
2185312,721
2185334,426
2185356,-65
2185398,15
2185418,647
2185555,218
2185637,450
2185681,1182
2185689,857
2185731,720
2185736,768
2185754,927
2185776,1041
2185818,1053
2185839,930
2185860,932
2185902,995
2185922,1367
2185944,1490
2185986,1325
2185991,945
2186008,714
2186030,915
2186072,1389
2186094,1564
2186116,1337
2186159,1371
2186179,1873
2186201,1817
2186244,1667
2186265,1672
2186285,1558
2186327,1293
2186350,1090
2186371,1166
2186414,1133
2186433,1012
2186455,1121
2186498,1194
2186518,1300
2186540,1571
2186583,1839
2186720,1552
2186804,321
2186850,91
2186855,461
2186875,510
2186918,297
2186939,-34
2186960,32
2187003,-91
2187023,-1087
2187045,-1364
2187088,-1271
2187108,-1042
2187130,-1326
2187173,-1663
2187193,-1492
2187215,-1162
2187258,-1087
2187278,-1657
2187300,-1745
2187343,-1557
2187363,-1300
2187385,-1367
2187428,-1348
2187448,-1373
2187470,-1717
2187512,-2024
2187533,-1588
2187555,-1308
2187597,-1421
2187618,-1844
2187640,-1534
2187682,-1042
2187703,-949
2187725,-1374
2187865,-1705
2187944,-1847
2187989,-1746
2188033,-1936
2188039,-1649
2188060,-1620
2188103,-1614
2188124,-1394
2188144,-1227
2188186,-1073
2188209,-1132
2188230,-1442
2188273,-1747
2188293,-1623
2188315,-1472
2188358,-1504
2188379,-1298
2188400,-838
2188443,-495
2188463,-702
2188485,-767
2188527,-674
2188548,-908
2188570,-1181
2188612,-1206
2188633,-909
2188654,-1029
2188697,-1210
2188718,-970
2188739,-823
2188782,-920
2188802,-1280
2188824,-1149
2188867,-877
2188889,-789
2189056,-1105
2189133,-579
2189217,-405
2189262,-822
2189306,-597
2189325,-1206
2189367,-741
2189388,-241
2189409,-629
2189452,-937
2189474,-463
2189496,-307
2189538,-507
2189559,-965
2189580,-908
2189623,-869
2189643,-989
2189665,-927
2189707,-831
2189727,-945
2189749,-945
2189791,-794
2189796,-633
2189813,-624
2189835,-751
2189877,-860
2189882,-907
2189900,-965
2189922,-1050
2189964,-1074
2189985,-930
2190007,-1003
2190148,-1056
2190194,-548
2190238,-227
2190257,-777
2190299,-609
2190338,-333
2190343,-520
2190386,-584
2190405,-70
2190426,33
2190468,-80
2190473,-255
2190492,-394
2190513,-549
2190556,-714
2190576,-580
2190598,-329
2190640,-288
2190661,-709
2190682,-574
2190725,-204
2190747,-285
2190768,-775
2190810,-988
2190831,-235
2190852,-3
2190894,-149
2190900,-432
2190918,-577
2190939,-494
2190982,-310
2191003,-170
2191024,-257
2191067,-342
2191087,-107
2191109,170
2191151,352
2191172,217
2191283,125
2191366,-90
2191411,190
2191423,-228
2191461,-459
2191504,-467
2191509,-194
2191529,-405
2191572,-765
2191593,-669
2191614,-259
2191657,-55
2191677,-394
2191699,-467
2191741,-388
2191763,-393
2191785,-485
2191827,-477
2191848,-246
2191869,-249
2191912,-334
2191933,-221
2191954,49
2191996,278
2192019,82
2192039,-212
2192081,-298
2192086,-54
2192104,335
2192126,519
2192168,327
2192189,-175
2192210,-13
2192253,154
2192273,-388
2192295,-591
2192436,-402
2192482,-342
2192526,-381
2192545,-309
2192587,-248
2192592,-281
2192630,-331
2192635,-333
2192678,-351
2192695,-524
2192717,-441
2192759,-186
2192780,112
2192801,-56
2192844,-265
2192866,-252
2192888,-97
2192930,1
2192950,-15
2192972,-42
2193014,-22
2193036,192
2193056,295
2193099,266
2193104,81
2193122,-178
2193144,-314
2193186,-214
2193207,89
2193228,-50
2193271,-284
2193291,-195
2193313,-12
2193355,-47
2193377,-544
2193399,-603
2193441,-536
2193462,-641
2193572,-680
2193655,-603
2193700,-425
2193712,-789
2193734,-555
2193776,-185
2193815,-13
2193820,-188
2193862,-278
2193881,40
2193903,213
2193945,170
2193950,-102
2193968,-405
2193990,-507
2194032,-331
2194053,117
2194074,15
2194117,-161
2194137,-35
2194159,148
2194201,173
2194206,31
2194224,-127
2194246,-206
2194288,-267
2194309,-580
2194331,-612
2194373,-388
2194394,30
2194415,-114
2194457,-239
2194462,-74
2194480,269
2194502,386
2194543,87
2194548,-363
2194566,-528
2194588,-295
2194727,28
2194770,435
2194811,129
2194817,-46
2194838,-79
2194911,54
2194923,318
2194963,107
2194968,81
2194988,313
2195009,516
2195049,429
2195055,94
2195073,-224
2195094,-347
2195135,-336
2195140,-320
2195160,-308
2195181,-233
2195221,-131
2195226,-152
2195245,-364
2195266,-639
2195306,-774
2195311,-746
2195331,-727
2195353,-895
2195393,-1206
2195398,-1401
2195418,-1261
2195440,-837
2195480,-408
2195485,-257
2195503,-414
2195525,-645
2195565,-694
2195570,-540
2195590,-401
2195611,-465
2195651,-694
2195656,-884
2195676,-843
2195714,-605
2195754,-381
2195760,-401
2195870,-450
2195948,-495
2195990,-350
2196011,-17
2196032,366
2196072,596
2196077,627
2196097,727
2196119,1160
2196159,1862
2196164,2525
2196182,3006
2196204,3478
2196245,4127
2196250,4881
2196268,5472
2196290,5773
2196332,5948
2196337,6212
2196355,6544
2196377,6690
2196419,6476
2196440,5446
2196462,4926
2196505,4359
2196525,2728
2196547,1704
2196589,684
2196610,-848
2196632,-1268
2196674,-1587
2196695,-2149
2196716,-2125
2196759,-1790
2196798,-1214
2196803,-1348
2196846,-1416
2196865,-537
2196887,-273
2197028,-573
2197075,-1371
2197119,-1453
2197137,-1380
2197180,-1059
2197201,-614
2197222,-899
2197265,-1167
2197286,-731
2197308,-499
2197351,-572
2197370,-888
2197391,-814
2197435,-733
2197455,-782
2197477,-721
2197520,-592
2197541,-574
2197562,-656
2197605,-574
2197626,-21
2197647,58
2197690,-99
2197710,-278
2197732,-67
2197775,98
2197797,-220
2197818,-338
2197861,-221
2197881,33
2197903,-111
2197945,-262
2197984,-18
2197989,153
2198031,143
2198050,-60
2198162,26
2198245,533
2198290,403
2198301,728
2198322,678
2198365,531
2198386,745
2198407,946
2198450,928
2198471,737
2198492,894
2198535,1030
2198556,727
2198577,613
2198620,707
2198641,897
2198663,825
2198706,807
2198726,1041
2198748,1114
2198791,1119
2198812,1027
2198833,963
2198877,932
2198897,1053
2198917,1055
2198960,1007
2198981,1204
2199003,1337
2199046,1280
2199067,1088
2199088,1281
2199131,1506
2199152,1428
2199585,1421
2199834,732
2199978,24
2200063,-1048
2200108,-545
2200151,-1120
2200164,-1175
2200206,-1272
2200227,-2042
2200249,-2102
2200292,-1783
2200312,-1502
2200334,-1774
2200377,-1836
2200398,-897
2200419,-664
2200462,-908
2200483,-1483
2200504,-1371
2200547,-1223
2200568,-1440
2200590,-1572
2200731,-1509
2200777,-1213
2200821,-552
2200839,-1178
2200882,-1509
2200902,-1240
2200924,-1113
2200967,-1259
2200988,-1311
2201009,-857
2201052,-414
2201073,-537
2201094,-754
2201170,-768
2201178,-687
2201221,-747
2201242,-611
2201263,-582
2201306,-629
2201327,-633
2201348,-660
2201391,-834
2201412,-1104
2201433,-937
2201476,-783
2201497,-1201
2201519,-1312
2201562,-952
2201582,-161
2201604,-482
2201646,-873
2201667,-326
2201689,-130
2201731,-592
2201752,-1435
2201864,-933
2201947,-778
2201992,-665
2202001,180
2202023,305
2202066,-34
2202088,-481
2202109,-331
2202152,-248
2202173,-558
2202194,-703
2202237,-806
2202258,-855
2202279,-623
2202322,-298
2202361,-234
2202366,-406
2202408,-378
2202427,200
2202449,231
2202492,-64
2202512,-690
2202534,-630
2202576,-425
2202597,-309
2202619,-432
2202661,-505
2202682,-374
2202704,-303
2202746,-290
2202767,-381
2202788,-508
2202831,-648
2202852,-474
2202873,-257
2203015,-234
2203061,-261
2203105,-805
2203124,-763
2203167,-815
2203187,-798
2203209,-758
2203252,-722
2203272,-557
2203294,-511
2203337,-501
2203357,-475
2203379,-534
2203422,-637
2203442,-380
2203464,-35
2203539,109
2203549,-658
2203592,-457
2203612,87
2203634,-21
2203676,-242
2203697,-149
2203719,133
2203761,333
2203782,241
2203804,154
2203846,137
2203867,-47
2203888,-282
2203931,-420
2203952,-165
2203973,-106
2204016,-215
2204036,-138
2204148,157
2204231,-439
2204276,-546
2204287,-315
2204309,-245
2204351,-226
2204372,-56
2204393,-63
2204436,-168
2204458,-11
2204479,248
2204522,302
2204543,-162
2204564,-97
2204607,278
2204628,464
2204649,-29
2204692,-455
2204712,-159
2204750,5
2204793,-217
2204799,-534
2204819,-65
2204861,364
2204882,-227
2204904,-554
2204946,-372
2204967,-5
2204990,-450
2205032,-839
2205053,-311
2205075,-91
2205117,-254
2205138,-224
2205159,243
2205300,461
2205347,-270
2205391,-423
2205410,-387
2205453,-257
2205473,401
2205495,389
2205537,22
2205558,-252
2205580,118
2205622,395
2205643,-54
2205664,-311
2205707,-336
2205728,-371
2205749,-503
2205792,-508
2205813,-212
2205834,-220
2205877,-258
2205898,205
2205919,456
2205995,403
2206003,-62
2206046,90
2206066,135
2206088,96
2206131,173
2206151,445
2206174,490
2206217,482
2206238,317
2206258,137
2206301,7
2206323,193
2206435,306
2206518,568
2206563,292
2206572,217
2206594,392
2206637,450
2206657,-99
2206679,-401
2206722,-498
2206743,-414
2206764,-465
2206807,-527
2206828,-368
2206849,-169
2206892,28
2206912,54
2206934,-130
2206976,-329
2206997,-569
2207019,-697
2207062,-785
2207082,-569
2207104,-463
2207147,-548
2207167,-617
2207189,-363
2207265,-212
2207273,-888
2207316,-684
2207336,-223
2207358,-270
2207400,-315
2207405,-267
2207423,-226
2207444,-298
2207583,-445
2207627,-474
2207668,50
2207674,407
2207695,464
2207736,602
2207741,893
2207759,1273
2207781,1653
2207821,2084
2207827,2688
2207847,3520
2207868,4392
2207910,5051
2207930,5724
2207952,6059
2207994,6407
2208017,6321
2208038,5767
2208081,5094
2208100,3901
2208122,3283
2208165,2529
2208186,807
2208207,136
2208250,-382
2208271,-1351
2208292,-1666
2208368,-1695
2208376,-1743
2208419,-1828
2208440,-1092
2208461,-762
2208504,-793
2208526,-995
2208546,-791
2208588,-622
2208593,-704
2208612,-943
2208720,-1115
2208803,-904
2208847,-1032
2208862,-943
2208883,-974
2208926,-914
2208946,-484
2208968,-429
2209011,-587
2209031,-860
2209053,-825
2209096,-846
2209116,-1116
2209138,-1103
2209181,-961
2209201,-768
2209223,-703
2209266,-523
2209286,-302
2209308,-603
2209350,-959
2209371,-787
2209393,-513
2209435,-471
2209456,-595
2209494,-353
2209537,-54
2209542,-88
2209564,-289
2209607,-420
2209627,-455
2209649,-383
2209692,-258
2209712,-232
2209734,-330
2209875,-298
2209921,-253
2209965,76
2209984,-83
2210027,196
2210047,663
2210069,577
2210112,464
2210132,720
2210154,901
2210197,880
2210217,474
2210239,499
2210282,674
2210302,638
2210324,422
2210367,328
2210387,587
2210409,677
2210451,730
2210472,900
2210494,864
2210536,713
2210556,580
2210657,698
2210702,813
2210745,704
2210789,1247
2210828,1062
2210833,899
2210875,925
2210893,1296
2211005,1364
2211088,1186
2211133,751
2211144,615
2211165,534
2211208,385
2211228,407
2211250,506
2211293,418
2211313,-49
2211335,10
2211377,174
2211399,-192
2211421,-607
2211463,-848
2211484,-797
2211506,-817
2211548,-905
2211569,-926
2211590,-920
2211633,-943
2211653,-975
2211675,-1049
2211717,-1242
2211738,-1532
2211760,-1421
2211802,-1278
2211824,-1507
2211844,-1686
2211887,-1636
2211892,-1429
2211911,-1334
2211932,-1536
2212007,-1886
2212016,-1526
2212157,-1421
2212203,-1220
2212247,-1327
2212266,-1316
2212308,-1262
2212330,-984
2212351,-1000
2212393,-1031
2212414,-712
2212436,-653
2212478,-824
2212499,-1203
2212520,-1245
2212563,-1316
2212583,-1333
2212605,-1103
2212647,-876
2212653,-818
2212669,-842
2212691,-757
2212733,-510
2212738,-289
2212757,-284
2212778,-459
2212821,-642
2212841,-676
2212863,-594
2212905,-551
2212926,-859
2212948,-1060
2212990,-1022
2213011,-466
2213032,-519
2213075,-794
2213113,-893
2213118,-6
2213160,303
2213181,-229
2213293,-468
2213375,-601
2213420,-509
2213432,-360
2213454,-414
2213496,-457
2213517,-419
2213538,-416
2213581,-483
2213601,-702
2213623,-699
2213665,-600
2213686,-620
2213707,-758
2213750,-731
2213755,-456
2213773,-154
2213795,-101
2213837,-266
2213858,-103
2213879,222
2213922,277
2213942,-390
2213964,-487
2214006,-269
2214011,1
2214029,56
2214051,-131
2214093,-337
2214114,-157
2214135,37
2214178,5
2214200,-573
2214238,-692
2214280,-616
2214286,-345
2214306,-283
2214446,-307
2214492,-289
2214536,-773
2214555,82
2214597,110
2214602,-106
2214621,-185
2214642,-7
2214684,199
2214705,-47
2214726,-246
2214769,-306
2214791,-145
2214812,0
2214854,120
2214875,5
2214896,-33
2214939,117
2214944,338
2214962,363
2214983,111
2215026,-170
2215047,-79
2215068,-63
2215110,-293
2215131,-504
2215152,-260
2215195,-105
2215217,-377
2215239,-375
2215281,-177
2215301,-57
2215323,-254
2215365,-466
2215682,-634
2215846,-220
2215930,-35
2215975,-5
2215985,-125
2216028,-271
2216048,-491
2216070,-538
2216112,-606
2216117,-661
2216136,-667
2216156,-586
2216198,-428
2216203,-235
2216221,-87
2216243,-79
2216285,-242
2216305,-582
2216327,-513
2216369,-334
2216392,-112
2216413,-91
2216455,-86
2216476,-88
2216497,-37
2216539,62
2216561,93
2216583,-101
2216625,-280
2216646,64
2216667,454
2216710,614
2216814,39
2216858,-220
2216901,-381
2216919,292
2216961,183
2216982,-30
2217003,148
2217078,130
2217088,-673
2217131,-506
2217151,-527
2217173,-690
2217215,-640
2217236,-44
2217257,196
2217300,327
2217322,164
2217343,-43
2217385,-69
2217406,359
2217428,305
2217470,-21
2217475,-296
2217493,-294
2217515,-101
2217557,34
2217577,-129
2217599,-190
2217641,-188
2217663,-164
2217685,-111
2217727,-9
2217747,155
2217769,140
2217811,68
2217833,-47
2217948,7
2218030,-440
2218074,-279
2218083,-70
2218105,62
2218147,-64
2218168,-264
2218189,49
2218231,410
2218270,463
2218275,347
2218317,329
2218338,305
2218359,192
2218402,19
2218422,-335
2218444,-399
2218486,-340
2218491,-208
2218509,-83
2218531,20
2218573,143
2218593,249
2218615,124
2218657,-1
2218662,-23
2218680,-20
2218702,-165
2218744,-493
2218765,-688
2218786,-258
2218829,151
2218851,-135
2218872,-390
2218915,-285
2218935,243
2218957,13
2219097,-387
2219141,28
2219182,266
2219188,302
2219208,91
2219247,-15
2219252,42
2219272,131
2219294,163
2219334,149
2219339,139
2219376,174
2219382,260
2219422,414
2219426,578
2219445,601
2219465,396
2219505,121
2219510,85
2219530,393
2219551,701
2219591,585
2219596,115
2219616,-145
2219638,160
2219678,677
2219683,699
2219703,80
2219724,-506
2219764,-385
2219770,259
2219788,609
2219810,214
2219850,-462
2219855,-664
2219875,-282
2219896,91
2219936,-50
2219941,-528
2219961,-832
2219981,-768
2220021,-616
2220026,-647
2220046,-759
2220068,-686
2220107,-425
2220112,-210
2220132,-197
2220242,-300
2220320,-529
2220395,-441
2220403,-778
2220443,-525
2220448,-217
2220468,-170
2220489,-456
2220529,-788
2220534,-803
2220554,-462
2220576,-76
2220615,18
2220621,-225
2220641,-547
2220662,-646
2220702,-453
2220707,-134
2220725,37
2220747,-97
2220786,-452
2220792,-751
2220812,-717
2220833,-307
2220873,275
2220878,775
2220898,1113
2220920,1453
2220960,2003
2220965,2770
2220984,3577
2221005,4291
2221046,4936
2221051,5604
2221070,6249
2221091,6693
2221133,6864
2221138,6904
2221156,6981
2221194,7050
2221237,6846
2221243,5170
2221263,4169
2221404,3404
2221449,-925
2221512,-1133
2221556,-1554
2221599,-1237
2221642,-1527
2221659,-1129
2221680,-1193
2221723,-1445
2221744,-1434
2221765,-1259
2221808,-1262
2221829,-1340
2221850,-1047
2221893,-723
2221914,-818
2221936,-1022
2221979,-1052
2221999,-740
2222021,-713
2222064,-833
2222084,-1023
2222106,-897
2222149,-724
2222170,-542
2222191,-457
2222234,-336
2222254,-500
2222276,-692
2222318,-688
2222339,-303
2222377,-396
2222419,-662
2222425,-689
2222535,-465
2222617,-29
2222661,-474
2222675,-572
2222697,-758
2222739,-761
2222760,-169
2222781,-61
2222823,-145
2222844,15
2222867,178
2222909,53
2222930,-478
2222951,-322
2222994,28
2223014,207
2223036,180
2223078,322
2223083,590
2223101,773
2223122,772
2223164,625
2223169,444
2223187,345
2223209,430
2223252,680
2223272,869
2223294,676
2223336,616
2223357,1326
2223379,1477
2223421,1177
2223442,497
2223464,551
2223506,667
2223527,650
2223565,780
2223706,1059
2223753,609
2223796,485
2223802,588
2223844,689
2223862,1099
2223884,1423
2223926,1640
2223947,1416
2223968,1312
2224011,1430
2224032,1511
2224054,1207
2224096,982
2224117,1349
2224138,1494
2224181,1435
2224202,1580
2224223,1791
2224266,1798
2224287,1402
2224309,1427
2224351,1491
2224372,865
2224394,502
2224436,440
2224457,561
2224478,163
2224521,-441
2224543,-787
2224563,-388
2224606,-93
2224611,-255
2224629,-776
2224651,-1192
2224693,-1132
2224921,-302
2225046,-1699
2225093,-1319
2225136,-1359
2225149,-1513
2225192,-1275
2225211,-1469
2225233,-1822
2225276,-1859
2225296,-1404
2225318,-1634
2225361,-2048
2225382,-1970
2225404,-1675
2225447,-1621
2225467,-1765
2225489,-1541
2225532,-1296
2225551,-1482
2225573,-1665
2225616,-1669
2225637,-1505
2225658,-1573
2225701,-1648
2225722,-1468
2225744,-1300
2225787,-1188
2225807,-1021
2225829,-854
2225872,-680
2225892,-692
2225914,-865
2226055,-968
2226101,-1214
2226146,-1077
2226184,-1445
2226228,-1380
2226249,-1209
2226291,-1212
2226312,-822
2226332,-608
2226375,-587
2226397,-609
2226419,-458
2226461,-427
2226482,-942
2226503,-901
2226546,-525
2226567,-512
2226588,-1033
2226631,-1174
2226652,45
2226673,141
2226716,-453
2226737,-878
2226758,-177
2226801,317
2226822,-463
2226843,-678
2226886,-333
2226907,76
2226928,-322
2226971,-616
2226991,-261
2227013,-257
2227055,-554
2227076,-640
2227189,-393
2227272,-619
2227317,-940
2227326,-393
2227364,-573
2227407,-716
2227413,-162
2227433,-123
2227475,-509
2227496,-916
2227518,-687
2227560,-595
2227583,-889
2227604,-699
2227647,-320
2227668,-60
2227689,-116
2227732,-96
2227752,-292
2227774,-528
2227816,-562
2227837,-186
2227859,-257
2227901,-467
2227922,-396
2227944,-255
2227986,-296
2228007,-563
2228028,-613
2228071,-732
2228092,-890
2228113,-569
2228156,-157
2228177,-124
2228198,-339
2228339,-372
2228385,-1201
2228430,-732
2228449,-679
2228491,-719
2228512,-270
2228550,-140
2228593,-218
2228599,-110
2228619,81
2228661,35
2228682,-441
2228703,-418
2228746,-319
2228768,-598
2228790,-667
2228832,-475
2228853,-195
2228875,-355
2228917,-473
2228938,-301
2228959,-303
2229002,-389
2229023,-405
2229044,-385
2229087,-407
2229108,-245
2229129,-81
2229172,-129
2229192,-718
2229214,-763
2229257,-565
2229277,-445
2229299,-624
2229341,-684
2229362,-401
2229474,-428
2229557,-619
2229602,-475
2229613,-34
2229634,-135
2229677,-317
2229697,-454
2229735,-516
2229778,-679
2229783,-961
2229805,-927
2229848,-896
2229868,-900
2229890,-698
2229933,-430
2229953,-427
2229975,-534
2230017,-429
2230038,-153
2230060,-384
2230102,-662
2230123,-616
2230145,-603
2230187,-790
2230208,-782
2230230,-426
2230272,-233
2230293,-751
2230314,-855
2230357,-604
2230378,-252
2230399,-563
2230442,-892
2230463,-654
2230484,-483
2230626,-622
2230672,-472
2230716,-289
2230735,-526
2230778,-673
2230798,-290
2230820,-184
2230862,-358
2230901,-827
2230906,-709
2230949,-432
2230968,-280
2230989,-503
2231032,-718
2231037,-797
2231055,-759
2231077,-690
2231119,-607
2231140,-401
2231161,-376
2231204,-418
2231225,-297
2231246,-173
2231289,-230
2231309,-803
2231331,-872
2231373,-705
2231396,-519
2231415,-650
2231458,-712
2231463,-572
2231481,-367
2231503,-300
2231545,-408
2231566,-524
2231588,-377
2231630,-318
2231651,-830
2231763,-961
2231845,-539
2231890,-258
2231901,-412
2231922,-310
2231965,-219
2231986,-53
2232024,103
2232066,219
2232072,155
2232092,190
2232134,295
2232139,276
2232157,-3
2232179,-442
2232219,-739
2232224,-690
2232243,-404
2232342,-183
2232384,-491
2232426,708
2232432,-1
2232472,-264
2232477,-49
2232497,414
2232518,677
2232558,502
2232563,99
2232581,-136
2232603,-31
2232643,233
2232648,359
2232668,249
2232690,68
2232730,22
2232735,142
2232755,281
2232776,354
2232915,448
2232959,516
2233000,744
2233006,208
2233027,-341
2233067,-560
2233073,-352
2233091,-15
2233129,110
2233169,-7
2233176,-40
2233198,169
2233238,317
2233243,322
2233263,231
2233284,109
2233325,-14
2233330,-116
2233348,-159
2233369,-137
2233409,-132
2233414,-227
2233434,-367
2233456,-392
2233496,-219
2233501,50
2233521,185
2233543,78
2233582,-151
2233588,-267
2233606,-141
2233627,85
2233667,187
2233672,60
2233692,-132
2233714,-126
2233754,146
2233759,459
2233779,561
2233800,486
2233840,524
2233846,815
2233864,1149
2233886,1219
2233926,1048
2233931,1012
2234067,1420
2234146,4118
2234190,6430
2234200,6745
2234221,6851
2234263,6915
2234284,6467
2234306,5733
2234349,4786
2234369,3107
2234391,2392
2234433,1536
2234454,-472
2234476,-1145
2234518,-1426
2234523,-1454
2234540,-1406
2234562,-1338
2234604,-1226
2234626,-904
2234648,-767
2234691,-624
2234711,-252
2234733,-185
2234775,-278
2234796,-426
2234818,-240
2234860,-34
2234881,-303
2234902,-546
2234945,-504
2234966,-3
2234987,-87
2235030,-376
2235051,-541
2235072,-391
2235213,-300
2235590,-322
2235793,506
2235878,505
2235923,741
2235967,415
2235981,996
2236023,1286
2236029,1327
2236047,1112
2236069,838
2236111,722
2236132,950
2236154,834
2236196,512
2236217,551
2236327,1041
2236410,1750
2236456,1127
2236467,1623
2236489,1769
2236532,1543
2236551,1162
2236573,1485
2236616,1930
2236637,2126
2236658,1950
2236702,1889
2236722,2291
2236742,2441
2236786,2318
2236807,1841
2236828,1867
2236872,1999
2236892,1849
2236914,1709
2236957,1858
2236977,2637
2237015,2718
2237058,2543
2237064,2369
2237083,2464
2237126,2445
2237147,1920
2237169,1706
2237212,1664
2237233,1803
2237253,1863
2237296,1921
2237317,2076
2237339,2098
2237480,2043
2237527,1696
2237572,1122
2237589,1292
2237632,1163
2237652,515
2237673,346
2237716,292
2237737,112
2237758,-8
2237801,-137
2237821,-531
2237843,-651
2237886,-617
2237906,-576
2237928,-738
2237971,-863
2237991,-723
2238013,-652
2238056,-680
2238076,-734
2238098,-601
2238141,-372
2238161,-267
2238199,-589
2238242,-931
2238248,-922
2238269,-907
2238312,-1203
2238333,-1631
2238353,-1276
2238396,-862
2238418,-681
2238439,-493
2238482,-116
2238503,-27
2238615,-350
2238698,-1038
2238743,-862
2238752,-673
2238774,-598
2238816,-729
2238837,-1000
2238859,-784
2238902,-548
2238922,-757
2238944,-808
2238987,-534
2239007,-95
2239029,-419
2239071,-796
2239092,-519
2239114,-217
2239156,-271
2239177,-953
2239199,-913
2239241,-575
2239262,-269
2239284,-472
2239326,-646
2239365,-395
2239370,-209
2239413,-231
2239432,-747
2239453,-807
2239496,-594
2239518,-243
2239540,-530
2239583,-897
2239603,-680
2239625,-306
2239766,-241
2239812,42
2239856,-213
2239874,28
2239916,-67
2239939,-524
2239960,-498
2240003,-280
2240024,-206
2240045,-303
2240088,-175
2240108,305
2240130,139
2240173,-204
2240193,-402
2240215,-393
2240258,-512
2240278,-472
2240300,-204
2240343,-72
2240363,-449
2240385,-551
2240428,-514
2240448,-605
2240470,-676
2240513,-670
2240533,-756
2240571,-827
2240614,-684
2240620,-150
2240640,-206
2240682,-413
2240703,-423
2240725,-276
2240767,-210
2240788,-170
2240900,-148
2240983,97
2241028,-628
2241039,-340
2241060,-453
2241103,-562
2241123,-394
2241145,-409
2241188,-557
2241208,-447
2241230,-118
2241273,106
2241294,-180
2241315,-402
2241358,-433
2241379,-128
2241400,-173
2241443,-448
2241463,-815
2241485,-574
2241528,-238
2241549,-228
2241570,-500
2241613,-644
2241633,-423
2241655,-347
2241698,-345
2241736,-304
2241741,-324
2241784,-404
2241803,-233
2241825,50
2241868,202
2241888,-101
2241910,-182
2242051,-85
2242097,-346
2242141,-541
2242160,-372
2242203,-373
2242224,-499
2242245,-405
2242288,-271
2242309,-384
2242330,-522
2242373,-525
2242394,-189
2242415,-137
2242458,-210
2242479,-72
2242500,150
2242543,146
2242565,-516
2242587,-607
2242629,-483
2242650,-759
2242672,-1037
2242715,-900
2242735,75
2242756,45
2242799,-267
2242820,-97
2242841,266
2242884,291
2242905,-539
2242943,-775
2242985,-752
2242991,-531
2243011,-531
2243054,-537
2243075,-196
2243242,20
2243287,29
2243371,99
2243415,-701
2243428,-474
2243471,-371
2243491,-556
2243513,-601
2243556,-465
2243576,-19
2243598,-39
2243640,-277
2243661,-658
2243683,-546
2243726,-385
2243746,-522
2243768,-680
2243811,-652
2243831,-86
2243853,64
2243896,-13
2243918,-274
2243939,-212
2243982,-90
2244002,-129
2244024,-249
2244067,-307
2244087,-177
2244109,-170
2244151,-294
2244172,-520
2244210,-356
2244351,-132
2244398,68
2244441,12
2244447,185
2244490,113
2244507,145
2244529,268
2244571,312
2244592,161
2244613,55
2244656,-43
2244677,-15
2244700,140
2244742,237
2244763,209
2244784,268
2244827,359
2244848,236
2244869,99
2244912,-6
2244933,-210
2244954,-317
2244997,-403
2245018,-455
2245039,-273
2245082,21
2245103,-82
2245124,-469
2245167,-545
2245188,198
2245209,102
2245251,-392
2245256,-728
2245274,-551
2245296,-115
2245337,91
2245342,-48
2245360,-244
2245496,-281
2245575,-807
2245617,-322
2245630,-454
2245670,-439
2245675,-135
2245695,198
2245717,241
2245757,-49
2245762,-385
2245780,-487
2245802,-339
2245842,-134
2245847,-51
2245867,-96
2245888,-141
2245928,-62
2245933,142
2245953,398
2245975,643
2246015,868
2246020,1149
2246038,1530
2246060,2014
2246101,2563
2246106,3133
2246124,3687
2246146,4218
2246187,4736
2246192,5296
2246211,5873
2246233,6356
2246275,6592
2246295,6300
2246317,6120
2246360,6043
2246381,5238
2246418,4213
2246462,3073
2246467,1519
2246487,921
2246530,165
2246636,-1158
2246682,-1545
2246725,-862
2246739,-866
2246782,-1016
2246803,-866
2246824,-761
2246867,-778
2246888,-967
2246909,-1003
2246953,-985
2246972,-780
2246995,-700
2247038,-728
2247057,-973
2247079,-996
2247122,-932
2247142,-932
2247164,-966
2247207,-901
2247228,-626
2247249,-667
2247293,-802
2247313,-600
2247335,-253
2247378,-88
2247399,-674
2247419,-910
2247462,-781
2247482,-321
2247504,-510
2247547,-854
2247586,-714
2247591,-343
2247634,-154
2247653,-211
2247770,-94
2247854,-154
2247900,-1024
2247906,-89
2247924,-51
2247967,-390
2247988,-425
2248009,30
2248053,319
2248073,-16
2248095,-287
2248138,-423
2248158,-121
2248180,129
2248223,188
2248244,-86
2248265,55
2248308,383
2248329,555
2248350,399
2248393,393
2248414,446
2248434,183
2248477,-13
2248499,497
2248520,722
2248563,610
2248584,363
2248605,638
2248647,933
2248668,874
2248690,714
2248732,640
2248753,655
2248774,719
2248948,825
2249033,1162
2249078,1486
2249087,911
2249109,829
2249151,1082
2249172,1331
2249194,821
2249237,317
2249257,1073
2249279,1816
2249322,1948
2249342,993
2249364,1092
2249407,1599
2249427,1535
2249449,868
2249492,432
2249512,540
2249534,483
2249577,270
2249597,264
2249619,387
2249661,302
2249682,-195
2249703,-226
2249746,-170
2249767,-444
2249788,-586
2249831,-436
2249851,224
2249873,119
2249915,-310
2249938,-818
2249958,-744
2250099,-802
2250145,-1194
2250222,-1130
2250266,-1474
2250272,-1817
2250293,-1672
2250336,-1506
2250357,-1776
2250378,-1984
2250421,-1866
2250442,-937
2250462,-880
2250505,-1264
2250525,-1782
2250547,-1498
2250590,-1226
2250611,-1486
2250632,-1563
2250675,-1354
2250696,-1023
2250718,-1188
2250760,-1293
2250781,-895
2250803,-887
2250845,-1246
2250866,-1770
2250888,-1372
2250931,-869
2250951,-1177
2250973,-1719
2251016,-1885
2251037,-1148
2251058,-1039
2251101,-1271
2251122,-1384
2251232,-969
2251315,-794
2251393,-960
2251437,-726
2251455,-754
2251476,-711
2251519,-612
2251540,-787
2251561,-1062
2251604,-1208
2251625,-788
2251646,-527
2251689,-443
2251710,-592
2251731,-638
2251774,-679
2251794,-930
2251816,-1036
2251859,-1064
2251880,-1111
2251901,-1140
2251944,-1050
2251965,-545
2251986,-437
2252029,-522
2252050,-786
2252071,-692
2252114,-467
2252134,-264
2252156,-456
2252199,-729
2252219,-735
2252241,-476
2252382,-312
2252428,-738
2252472,-504
2252491,-169
2252534,-335
2252572,-497
2252578,-434
2252620,-488
2252641,-872
2252662,-932
2252705,-960
2252726,-1351
2252747,-1305
2252790,-828
2252811,-255
2252832,-788
2252875,-1332
2252896,-710
2252917,-211
2252960,-289
2252981,-1123
2253002,-1104
2253045,-853
2253066,-414
2253087,-312
2253130,-412
2253150,-1078
2253172,-996
2253215,-551
2253235,-380
2253257,-799
2253300,-915
2253320,-122
2253342,-173
2253384,-653
2253405,-1060
2253515,-724
2253598,-692
2253643,-787
2253655,-884
2253677,-770
2253753,-741
2253761,-774
2253804,-606
2253824,-609
2253846,-605
2253888,-407
2253909,-55
2254009,-170
2254055,259
2254098,-1
2254142,171
2254161,503
2254182,312
2254225,81
2254245,281
2254267,531
2254310,589
2254330,230
2254352,133
2254394,169
2254417,145
2254438,-31
2254481,-202
2254501,47
2254523,302
2254664,322
2254710,320
2254754,-475
2254773,-140
2254816,-541
2254836,-820
2254858,-411
2254900,-13
2254921,91
2254942,41
2254985,73
2255007,208
2255027,158
2255069,13
2255107,-126
2255113,-100
2255156,-72
2255176,-279
2255198,-350
2255240,-338
2255261,-387
2255282,-388
2255325,-268
2255346,-103
2255367,-187
2255410,-196
2255432,177
2255454,201
2255496,56
2255517,109
2255538,308
2255581,286
2255601,-291
2255623,-354
2255665,-272
2255686,-522
2255798,-779
2255880,-348
2255925,-197
2255936,-484
2255958,-633
2256000,-640
2256021,-532
2256042,-510
2256085,-436
2256106,-215
2256129,-216
2256171,-247
2256192,-38
2256213,54
2256256,47
2256294,122
2256299,227
2256342,211
2256361,6
2256382,59
2256425,129
2256447,-255
2256469,-444
2256511,-352
2256532,-64
2256553,-275
2256596,-543
2256616,-440
2256638,-279
2256681,-290
2256701,-383
2256723,-229
2256765,-68
2256787,-119
2256809,-202
2256950,-188
2256996,-324
2257040,-232
2257059,-523
2257102,-578
2257122,-83
2257143,124
2257186,137
2257207,184
2257228,484
2257270,813
2257293,824
2257313,548
2257354,339
2257359,317
2257377,410
2257399,460
2257439,391
2257444,299
2257482,343
2257487,556
2257527,786
2257549,630
2257571,351
2257611,205
2257616,222
2257634,223
2257656,59
2257696,-233
2257701,-452
2257721,-448
2257743,-328
2257783,-285
2257788,-387
2257808,-519
2257828,-553
2257868,-502
2257873,-452
2257893,-414
2257914,-307
2257955,-160
2257960,-118
2257979,-234
2258091,-327
2258169,-864
2258211,-619
2258229,-1089
2258250,-704
2258290,-155
2258295,19
2258315,-332
2258337,-822
2258377,-1029
2258382,-929
2258402,-799
2258423,-831
2258496,-945
2258507,-661
2258547,-544
2258553,-399
2258571,-203
2258592,-100
2258632,-238
2258638,-530
2258657,-645
2258679,-360
2258719,148
2258724,444
2258744,357
2258766,214
2258805,517
2258811,1388
2258829,2434
2258851,3158
2258891,3464
2258896,3703
2258915,4230
2258937,5026
2258978,5756
2258983,6131
2259002,6207
2259023,6213
2259066,6294
2259086,6150
2259108,5610
2259249,4863
2259296,302
2259339,-996
2259358,-1514
2259401,-1902
2259422,-1824
2259443,-1425
2259486,-1227
2259524,-1623
2259529,-1624
2259572,-1371
2259591,-1443
2259613,-1828
2259656,-1887
2259677,-1032
2259698,-1031
2259742,-1443
2259762,-1636
2259784,-1288
2259828,-1139
2259847,-1426
2259868,-1354
2259912,-1208
2259932,-1540
2259954,-1694
2259997,-1537
2260017,-1163
2260038,-1369
2260082,-1595
2260102,-1188
2260124,-765
2260167,-510
2260186,-651
2260208,-846
2260251,-907
2260272,-403
2260384,-250
2260468,-718
2260513,-931
2260522,-224
2260543,-63
2260586,-167
2260607,-503
2260645,-551
2260688,-505
2260693,-307
2260713,-399
2260756,-646
2260777,-712
2260798,-470
2260840,-357
2260846,-464
2260864,-623
2260885,-661
2260928,-605
2260949,-522
2260970,-374
2261013,-174
2261033,-273
2261055,-324
2261097,-68
2261118,452
2261139,171
2261182,-163
2261203,303
2261224,642
2261267,572
2261288,106
2261311,309
2261354,659
2261374,701
2261394,446
2261536,262
2261582,124
2261626,715
2261645,639
2261688,761
2261709,1330
2261731,1251
2261774,934
2261794,836
2261832,1064
2261876,1109
2261881,636
2261900,467
2261943,430
2261964,548
2261985,655
2262028,722
2262049,742
2262070,890
2262113,1092
2262134,1071
2262156,958
2262198,993
2262219,912
2262241,588
2262284,373
2262304,745
2262326,839
2262369,668
2262389,340
2262411,299
2262454,131
2262474,-455
2262496,-658
2262539,-857
2262559,-1252
2262670,-1252
2262753,-1042
2262798,-1389
2262809,-1564
2262831,-1693
2262874,-1791
2262894,-1668
2262916,-1610
2262959,-1626
2262980,-1474
2263018,-1275
2263061,-1170
2263067,-1255
2263085,-1193
2263128,-1038
2263149,-1012
2263171,-1154
2263214,-1213
2263234,-977
2263256,-930
2263299,-1041
2263320,-1343
2263341,-1281
2263384,-1082
2263405,-858
2263427,-948
2263469,-1009
2263490,-945
2263511,-1054
2263554,-1308
2263575,-1531
2263596,-1349
2263639,-1202
2263660,-1306
2263681,-1207
2263822,-951
2263869,-1026
2263913,-1366
2263930,-769
2263973,-543
2263994,-884
2264015,-918
2264058,-816
2264080,-1079
2264102,-1263
2264178,-1172
2264184,-1117
2264227,-1168
2264248,-327
2264269,-248
2264312,-746
2264334,-1330
2264356,-826
2264399,-430
2264419,-1144
2264439,-1376
2264482,-1077
2264503,-663
2264526,-1024
2264569,-1268
2264590,-836
2264611,-810
2264654,-1020
2264675,-941
2264695,-764
2264737,-885
2264759,-1304
2264957,-1010
2265081,-983
2265128,-812
2265172,-668
2265177,-573
2265196,-370
2265239,-328
2265259,-867
2265281,-1037
2265324,-1041
2265345,-1083
2265366,-1131
2265409,-1080
2265448,-857
2265453,-756
2265496,-594
2265514,-412
2265535,-603
2265578,-839
2265599,-756
2265620,-670
2265663,-786
2265684,-1123
2265706,-989
2265748,-741
2265769,-646
2265791,-794
2265833,-889
2265854,-862
2265876,-865
2265918,-870
2265939,-682
2265961,-608
2266102,-674
2266148,-738
2266193,-862
2266212,-820
2266255,-926
2266275,-722
2266297,-562
2266340,-481
2266360,-422
2266382,-393
2266425,-360
2266445,-376
2266467,-596
2266510,-935
2266530,-872
2266552,-410
2266627,-178
2266636,-931
2266678,-490
2266699,167
2266721,-195
2266764,-681
2266784,-911
2266806,-823
2266849,-822
2266869,-883
2266891,-803
2266934,-693
2266954,-563
2266976,-557
2267018,-533
2267039,-392
2267061,-340
2267103,-403
2267124,-857
2267234,-914
2267317,-912
2267362,318
2267375,-823
2267396,-1059
2267439,-737
2267460,-314
2267480,-638
2267523,-848
2267545,-220
2267566,60
2267609,43
2267629,-134
2267651,-74
2267693,-57
2267714,-306
2267736,-365
2267778,-348
2267799,-465
2267837,-530
2267880,-422
2267885,-5
2267905,-112
2267948,-444
2267969,-609
2267990,-244
2268033,63
2268055,-267
2268076,-575
2268119,-635
2268140,-183
2268161,-144
2268204,-298
2268225,-526
2268246,-442
2268388,-348
2268434,-629
2268478,175
2268496,64
2268538,-292
2268559,262
2268581,638
2268623,558
2268644,-187
2268665,-183
2268708,30
2268730,44
2268751,-167
2268794,-199
2268815,436
2268836,541
2268879,249
2268899,-267
2268921,-10
2268964,252
2268984,-265
2269022,-625
2269065,-676
2269070,-335
2269092,-227
2269134,-118
2269155,-17
2269177,-31
2269219,170
2269240,949
2269261,837
2269304,375
2269325,242
2269346,625
2269389,680
2269410,-90
2269521,34
2269604,418
2269649,581
2269660,171
2269681,13
2269724,-247
2269746,-250
2269766,138
2269809,370
2269831,-195
2269852,-440
2269895,-351
2269916,-82
2269937,-339
2269980,-772
2270000,-1297
2270022,-1187
2270064,-914
2270085,-413
2270106,-366
2270148,-415
2270153,-419
2270171,-305
2270209,-146
2270250,-104
2270257,-472
2270277,-586
2270317,-545
2270322,-453
2270342,-393
2270364,-310
2270404,-150
2270409,-10
2270429,-44
2270450,-230
2270490,-360
2270495,-278
2270514,-117
2270535,-121
2270674,-335
2270717,-676
2270758,-343
2270766,-139
2270787,-160
2270828,-152
2270833,-35
2270851,282
2270872,823
2270913,1416
2270918,1809
2270938,1967
2270959,2190
2271000,2834
2271005,3846
2271024,4734
2271046,5100
2271087,5067
2271092,5109
2271109,5505
2271131,6051
2271395,6377
2271521,-947
2271567,-1238
2271610,-881
2271628,-509
2271670,-809
2271692,-791
2271799,-512
2271882,-432
2271926,-477
2271942,-39
2271963,-80
2272006,-342
2272028,-579
2272049,-434
2272092,-392
2272112,-604
2272134,-484
2272176,-233
2272197,32
2272218,227
2272261,560
2272282,605
2272303,191
2272345,-82
2272350,-28
2272369,142
2272390,154
2272433,-20
2272453,-200
2272475,-180
2272517,-203
2272538,-17
2272559,207
2272602,327
2272624,225
2272646,267
2272688,465
2272727,1066
2272732,1208
2272774,1040
2272794,410
2272815,500
2272956,776
2273002,671
2273046,734
2273065,1232
2273107,1243
2273128,733
2273150,593
2273192,596
2273214,738
2273236,743
2273278,651
2273299,454
2273320,692
2273363,1210
2273383,1712
2273405,1272
2273448,763
2273468,1078
2273490,1586
2273533,1705
2273554,964
2273575,884
2273618,1172
2273639,1610
2273660,1445
2273703,1234
2273724,1284
2273745,1399
2273788,1422
2273809,1401
2273831,1504
2273874,1634
2273894,1654
2273932,1588
2273975,1561
2273981,1580
2274090,1518
2274174,1483
2274219,1586
2274230,1739
2274251,1490
2274294,1224
2274315,1268
2274335,1304
2274378,1140
2274399,759
2274420,725
2274463,692
2274484,593
2274505,681
2274548,753
2274569,278
2274590,-107
2274633,-341
2274655,-384
2274677,-420
2274719,-601
2274740,-1181
2274762,-1252
2274804,-1116
2274825,-1044
2274847,-1251
2274889,-1418
2274910,-1363
2274932,-1365
2274974,-1454
2274995,-1493
2275016,-1421
2275059,-1356
2275098,-1443
2275103,-1606
2275244,-1701
2275290,-1414
2275334,-1073
2275352,-1188
2275395,-1258
2275415,-1282
2275437,-1193
2275480,-1022
2275500,-890
2275522,-1103
2275564,-1343
2275585,-1401
2275684,-1297
2275729,-964
2275773,-1458
2275817,-1225
2275836,-2026
2275858,-2238
2275900,-1908
2275921,-973
2275943,-1124
2275985,-1444
2276006,-906
2276028,-379
2276070,-321
2276091,-1232
2276113,-1305
2276155,-972
2276176,-476
2276197,-641
2276240,-832
2276262,-547
2276374,-222
2276609,-930
2276696,-308
2276779,-240
2276823,-1005
2276842,-671
2276862,-479
2276905,-587
2276910,-828
2276927,-920
2276950,-825
2276992,-730
2277013,-856
2277035,-825
2277077,-672
2277098,-635
2277119,-737
2277162,-669
2277183,-209
2277204,-229
2277247,-390
2277267,-335
2277289,-216
2277331,-271
2277353,-495
2277375,-383
2277516,-251
2277562,-540
2277606,-46
2277624,44
2277667,-230
2277688,79
2277709,337
2277752,141
2277773,-934
2277794,-973
2277837,-673
2277857,-461
2277895,-574
2277938,-506
2277944,-113
2277965,-141
2278008,-216
2278028,-17
2278050,6
2278092,-203
2278113,-639
2278134,-542
2278177,-324
2278198,-86
2278219,-128
2278261,-190
2278267,-166
2278285,4
2278306,262
2278349,382
2278369,-149
2278391,-385
2278434,-290
2278454,88
2278476,-117
2278518,-430
2278539,-354
2278650,-104
2278733,-231
2278778,-70
2278790,-87
2278812,-179
2278854,-164
2278875,180
2278896,193
2278939,57
2278960,-262
2278981,-319
2279024,-269
2279044,177
2279082,311
2279125,163
2279131,-241
2279151,43
2279193,476
2279214,347
2279237,-54
2279280,-210
2279300,76
2279322,40
2279364,-110
2279385,-136
2279406,-102
2279449,-147
2279469,-160
2279491,-48
2279533,46
2279555,81
2279577,34
2279619,-32
2279640,81
2279661,358
2279802,633
2279848,2
2279892,-260
2279911,-523
2279954,-234
2279974,211
2279996,-56
2280038,-454
2280061,-346
2280082,98
2280125,339
2280145,-174
2280167,-307
2280209,-71
2280230,246
2280251,-184
2280294,-737
2280332,-806
2280338,-457
2280380,-289
2280401,-492
2280421,-378
2280464,-11
2280469,404
2280487,622
2280508,581
2280551,365
2280572,1
2280593,38
2280635,169
2280656,227
2280678,169
2280720,189
2280741,350
2280762,226
2280805,8
2280827,-117
2280937,-78
2281020,231
2281065,-237
2281076,-386
2281099,-388
2281141,-168
2281162,143
2281183,12
2281226,-37
2281247,305
2281268,252
2281311,-42
2281331,-402
2281353,-325
2281395,-246
2281416,-108
2281438,88
2281480,290
2281485,398
2281523,404
2281528,339
2281571,226
2281588,-165
2281610,-298
2281652,-283
2281673,-22
2281694,100
2281737,206
2281757,266
2281779,191
2281821,123
2281844,162
2281865,135
2281908,15
2281928,-70
2281949,94
2282090,267
2282136,450
2282179,489
2282200,612
2282241,467
2282246,413
2282264,577
2282286,846
2282326,1002
2282331,914
2282350,687
2282371,489
2282411,398
2282416,385
2282436,417
2282458,530
2282498,687
2282503,732
2282522,526
2282543,155
2282584,-124
2282589,-138
2282627,-36
2282632,-80
2282672,-339
2282693,-544
2282714,-324
2282755,-203
2282760,-299
2282780,-435
2282801,-387
2282841,-195
2282846,-123
2282865,-337
2282886,-675
2282927,-827
2282932,-672
2282952,-393
2282973,-237
2283013,-278
2283018,-381
2283037,-366
2283058,-180
2283098,74
2283103,222
2283123,213
2283235,163
2283313,197
2283356,111
2283373,-370
2283395,-285
2283435,162
2283440,736
2283460,1181
2283481,1438
2283522,1597
2283527,1780
2283545,2066
2283567,2508
2283640,3028
2283650,3680
2283692,4074
2283697,4892
2283715,5800
2283737,6350
2283779,6472
2283784,6578
2283801,7008
2283823,7549
2283866,7670
2283887,6336
2283908,5774
2283951,5446
2283972,3795
2283994,2485
2284037,1515
2284057,724
2284079,140
2284122,-554
2284142,-699
2284164,-410
2284206,-460
2284227,-863
2284248,-493
2284389,-26
2284436,300
2284480,-384
2284499,-209
2284542,-167
2284562,-297
2284584,-426
2284627,-526
2284648,-376
2284669,-301
2284712,-397
2284733,-447
2284771,-166
2284814,43
2284820,-127
2284838,-77
2284881,166
2284902,253
2284923,40
2284966,-43
2284987,125
2285008,58
2285051,-71
2285072,107
2285093,383
2285136,549
2285157,388
2285179,343
2285222,472
2285242,646
2285264,356
2285306,17
2285327,151
2285348,373
2285391,362
2285412,87
2285523,187
2285606,337
2285650,517
2285663,715
2285684,700
2285727,627
2285748,846
2285769,1099
2285812,1153
2285833,665
2285854,723
2285897,1059
2285918,1073
2285939,646
2285982,475
2286021,1078
2286026,1124
2286069,919
2286088,1124
2286110,1454
2286152,1450
2286173,809
2286195,889
2286238,1210
2286258,1230
2286280,927
2286323,851
2286343,1485
2286365,1614
2286407,1456
2286428,1199
2286527,1295
2286670,1009
2286756,2233
2286802,1755
2286846,1793
2286864,1862
2286907,1845
2286928,1134
2286950,1028
2286993,1216
2287013,1176
2287035,892
2287078,806
2287099,1098
2287120,1012
2287163,829
2287184,776
2287206,677
2287248,302
2287269,-445
2287289,-441
2287332,-353
2287371,-606
2287376,-774
2287419,-805
2287438,-842
2287459,-947
2287502,-952
2287524,-640
2287546,-703
2287588,-1011
2287609,-1318
2287631,-1050
2287673,-815
2287694,-1372
2287802,-1782
2287886,-1016
2287930,-726
2287943,-1231
2287965,-1500
2288007,-1522
2288028,-1500
2288050,-1597
2288093,-1536
2288113,-1063
2288135,-1077
2288178,-1213
2288199,-995
2288220,-858
2288263,-1048
2288284,-1576
2288305,-1310
2288348,-918
2288369,-1213
2288390,-1526
2288433,-1387
2288454,-595
2288493,-790
2288536,-1227
2288542,-1067
2288560,-668
2288603,-629
2288624,-1218
2288645,-1110
2288688,-774
2288709,-767
2288730,-1019
2288773,-1040
2288794,-471
2288815,-372
2288957,-472
2289003,-457
2289047,-818
2289066,-706
2289109,-683
2289129,-648
2289151,-569
2289194,-461
2289214,-319
2289236,-358
2289278,-475
2289299,-665
2289321,-690
2289363,-767
2289384,-962
2289406,-788
2289448,-449
2289469,-366
2289490,-655
2289533,-713
2289554,48
2289575,105
2289618,-259
2289657,-612
2289662,-240
2289705,38
2289725,-405
2289747,-576
2289789,-455
2289810,-221
2289832,-287
2289874,-275
2289895,-171
2289916,-334
2289959,-517
2289980,-423
2290092,-410
2290175,-265
2290220,-265
2290231,-508
2290252,-789
2290295,-960
2290316,-953
2290337,-979
2290380,-992
2290401,-428
2290422,-27
2290465,122
2290485,-219
2290507,-284
2290550,-214
2290570,-298
2290592,-517
2290635,-725
2290655,-852
2290677,-666
2290720,-294
2290740,239
2290762,79
2290805,-155
2290843,9
2290848,199
2290891,160
2290910,-472
2290931,-737
2290974,-889
2290995,-824
2291018,-555
2291061,-286
2291081,-453
2291101,-698
2291243,-685
2291289,-495
2291333,-209
2291352,-401
2291395,-319
2291415,-317
2291437,-430
2291480,-414
2291500,102
2291522,264
2291564,135
2291587,-348
2291607,-182
2291649,179
2291654,372
2291673,218
2291694,-53
2291737,-81
2291757,510
2291779,543
2291821,353
2291842,227
2291864,243
2291906,55
2291927,-559
2291948,-598
2291991,-459
2292030,-340
2292035,-445
2292077,-485
2292097,-147
2292118,-107
2292161,-345
2292183,-777
2292204,-624
2292247,-424
2292268,-429
2292378,-306
2292461,85
2292506,-258
2292517,-130
2292540,-29
2292582,73
2292603,175
2292624,80
2292667,14
2292687,231
2292709,149
2292751,-125
2292772,-210
2292794,-42
2292836,-93
2292858,-397
2292878,-173
2292921,-14
2292943,-767
2292965,-945
2293008,-575
2293028,-34
2293050,-440
2293093,-800
2293113,-229
2293135,119
2293178,96
2293198,-392
2293236,-475
2293279,-493
2293285,-609
2293305,-594
2293348,-477
2293368,-273
2293390,-325
2293531,-375
2293577,-101
2293621,-379
2293639,19
2293681,282
2293703,91
2293725,-76
2293767,57
2293788,610
2293809,490
2293852,116
2293873,-374
2293894,-304
2293937,-191
2293957,-276
2293979,-416
2294021,-452
2294044,-244
2294065,-208
2294108,-257
2294128,-172
2294150,-68
2294192,-82
2294213,-362
2294234,-385
2294277,-319
2294298,-245
2294319,-169
2294362,17
2294384,367
2294405,315
2294481,166
2294489,381
2294532,555
2294553,341
2294664,211
2294748,341
2294792,441
2294803,814
2294825,841
2294866,707
2294887,532
2294908,529
2294949,389
2294954,120
2294974,-56
2294996,18
2295036,231
2295041,321
2295059,199
2295081,41
2295121,-2
2295125,17
2295145,-40
2295167,-206
2295207,-356
2295212,-411
2295232,-422
2295253,-447
2295293,-454
2295298,-337
2295318,-78
2295340,180
2295379,248
2295384,55
2295404,-253
2295426,-404
2295466,-229
2295471,138
2295489,317
2295527,66
2295567,-386
2295574,-117
2295596,404
2295636,440
2295641,-80
2295661,-611
2295682,-607
2295820,-157
2295864,168
2295904,-108
2295912,-112
2295933,-59
2295973,-78
2295978,-37
2295998,160
2296019,406
2296059,531
2296064,556
2296084,664
2296106,920
2296146,1175
2296151,1331
2296171,1530
2296191,2029
2296231,2821
2296236,3607
2296256,4113
2296278,4453
2296319,4975
2296324,5789
2296342,6587
2296364,6985
2296406,6927
2296427,6471
2296448,6325
2296491,6067
2296530,4797
2296535,3830
2296577,2791
2296597,1057
2296618,413
2296661,-253
2296666,-949
2296684,-1491
2296705,-1692
2296748,-1636
2296769,-1458
2296790,-1281
2296833,-929
2296853,-542
2296962,-677
2297044,-516
2297089,-1217
2297104,-1315
2297125,-1289
2297168,-1273
2297189,-1028
2297211,-738
2297253,-575
2297274,-803
2297373,-707
2297417,-619
2297462,-823
2297506,-625
2297525,-313
2297547,-51
2297590,16
2297609,36
2297632,160
2297675,164
2297696,-220
2297715,-284
2297759,-193
2297797,-96
2297802,-132
2297845,-161
2297864,-211
2297886,-81
2297929,283
2297949,967
2297971,851
2298112,604
2298158,504
2298202,777
2298221,867
2298263,757
2298268,599
2298287,532
2298308,627
2298351,794
2298371,860
2298393,870
2298435,1012
2298456,1330
2298478,1382
2298521,1480
2298541,1623
2298563,1396
2298606,1036
2298627,754
2298648,861
2298691,926
2298712,962
2298733,1134
2298776,1369
2298797,1596
2298819,1615
2298862,1647
2298881,1540
2298902,1395
2298946,1369
2298984,1806
2298989,1852
2299033,1612
2299052,1239
2299073,1457
2299116,1688
2299137,1369
2299247,1109
2299331,1253
2299376,1552
2299387,1198
2299409,1397
2299452,1726
2299471,1577
2299493,1237
2299536,1206
2299556,1836
2299578,1726
2299621,1216
2299642,514
2299663,608
2299706,737
2299727,654
2299748,482
2299791,250
2299812,-21
2299833,171
2299876,372
2299896,-148
2299918,-519
2299961,-488
2299981,189
2300003,138
2300045,-162
2300050,-401
2300067,-463
2300089,-511
2300164,-720
2300174,-1172
2300217,-1108
2300237,-1328
2300259,-1375
2300400,-1197
2300446,-1295
2300490,-1453
2300509,-1118
2300552,-910
2300573,-1188
2300595,-1275
2300637,-1127
2300658,-890
2300680,-1094
2300722,-1326
2300743,-1121
2300763,-834
2300806,-697
2300827,-959
2300848,-1045
2300891,-1002
2300913,-943
2300935,-1049
2300978,-1155
2300998,-1051
2301018,-946
2301061,-910
2301082,-1061
2301103,-1099
2301146,-994
2301168,-510
2301190,-466
2301232,-639
2301253,-829
2301291,-689
2301334,-634
2301340,-900
2301360,-836
2301402,-606
2301423,-456
2301535,-459
2301618,-202
2301662,-578
2301673,-757
2301695,-723
2301737,-707
2301758,-546
2301780,-290
2301822,-58
2301842,-280
2301864,-658
2301907,-942
2301927,-845
2301950,-787
2301993,-929
2302013,-1007
2302035,-566
2302078,-126
2302098,-382
2302120,-575
2302162,-348
2302183,124
2302204,-305
2302247,-810
2302268,-506
2302289,-41
2302331,124
2302337,-13
2302355,-239
2302376,-443
2302419,-642
2302457,-751
2302463,-538
2302505,-415
2302524,-951
2302546,-984
2302687,-504
2302733,-436
2302777,-1215
2302796,-883
2302839,-790
2302860,-932
2302881,-621
2302924,-248
2302944,-384
2302966,-521
2303009,-445
2303029,-481
2303051,-639
2303093,-567
2303114,-90
2303135,-148
2303178,-233
2303200,132
2303222,155
2303264,-124
2303285,-477
2303306,-305
2303349,-183
2303370,-448
2303391,-515
2303434,-387
2303454,59
2303476,121
2303518,-6
2303540,-451
2303560,-452
2303603,-308
2303641,-167
2303647,-151
2303689,-171
2303710,-338
2303822,-532
2303905,-690
2303949,-138
2303960,-218
2303982,-311
2304024,-463
2304045,-709
2304067,-552
2304109,-266
2304130,-74
2304151,-184
2304194,-197
2304215,129
2304236,78
2304279,-214
2304301,-684
2304322,-584
2304365,-412
2304385,-304
2304407,-181
2304450,115
2304470,419
2304492,144
2304534,-117
2304555,84
2304576,98
2304619,-250
2304640,-858
2304661,-527
2304704,-45
2304726,-130
2304747,-579
2304790,-802
2304811,-393
2304849,-250
2304990,-348
2305037,-126
2305080,169
2305086,86
2305128,-98
2305146,-231
2305167,-211
2305210,-229
2305230,-386
2305252,-471
2305295,-572
2305315,-617
2305337,-407
2305379,-142
2305400,-311
2305422,-604
2305464,-558
2305485,322
2305508,267
2305551,-212
2305572,-492
2305592,-120
2305634,39
2305656,-285
2305678,-174
2305721,24
2305741,-209
2305763,-291
2305805,-99
2305826,-41
2305847,-319
2305890,-347
2305910,170
2305932,13
2305974,-368
2305997,-314
2306333,-27
2306498,-355
2306583,771
2306628,122
2306671,67
2306679,-55
2306721,133
2306742,299
2306763,366
2306806,606
2306828,908
2306850,674
2306892,427
2306913,587
2306934,646
2306977,491
2306998,356
2307019,603
2307062,762
2307082,326
2307104,94
2307146,54
2307166,-72
2307187,-383
2307230,-654
2307251,-526
2307272,-354
2307315,-302
2307336,-299
2307357,-195
2307498,-151
2307543,-324
2307584,-645
2307590,71
2307608,178
2307649,-96
2307654,-432
2307674,-485
2307695,-250
2307768,-10
2307780,-72
2307820,-29
2307825,-69
2307844,-230
2307866,-368
2307906,-341
2307911,-206
2307930,-159
2307951,-230
2307991,-255
2307996,-108
2308016,157
2308038,375
2308078,499
2308083,637
2308103,877
2308202,1187
2308245,2875
2308286,4094
2308292,5367
2308334,5882
2308354,6319
2308376,6469
2308418,6530
2308439,5623
2308461,4871
2308504,4356
2308524,3675
2308635,2876
2308717,-492
2308762,-2071
2308774,-1459
2308796,-1279
2308838,-1206
2308859,-729
2308881,-349
2308956,-151
2308964,-767
2309007,-900
2309029,-1002
2309050,-1083
2309093,-1229
2309114,-1511
2309135,-1376
2309178,-985
2309199,-402
2309221,-590
2309263,-808
2309284,-411
2309306,-127
2309348,-148
2309369,-514
2309391,-500
2309433,-507
2309454,-873
2309475,-826
2309518,-572
2309539,-474
2309561,-598
2309603,-510
2309624,-10
2309645,33
2309787,35
2309833,-456
2309877,-413
2309895,-359
2309938,-409
2309958,-175
2309980,338
2310023,701
2310043,-10
2310065,-283
2310108,3
2310146,542
2310151,140
2310194,-251
2310214,133
2310236,319
2310279,183
2310300,105
2310321,452
2310364,753
2310384,854
2310406,924
2310449,1070
2310469,1098
2310491,924
2310533,690
2310554,198
2310576,170
2310618,352
2310639,646
2310660,641
2310703,813
2310725,1628
2310746,1682
2310789,1408
2310810,1126
2310922,1294
2311005,1054
2311050,1263
2311059,1093
2311081,1094
2311124,1223
2311145,1678
2311166,1796
2311209,1721
2311230,1424
2311252,1623
2311295,2005
2311314,1942
2311352,1492
2311395,1306
2311401,1981
2311421,2140
2311464,1990
2311485,1706
2311506,1648
2311550,1451
2311569,1007
2311590,975
2311634,875
2311654,183
2311676,17
2311718,168
2311739,517
2311761,372
2311804,214
2311824,469
2311846,605
2311889,522
2311909,197
2311931,143
2312072,-3
2312118,-1256
2312162,-1254
2312181,-1492
2312224,-1533
2312245,-1003
2312266,-947
2312309,-1212
2312330,-1484
2312352,-1272
2312394,-1187
2312415,-1551
2312437,-1547
2312480,-1383
2312500,-1534
2312539,-1795
2312582,-1904
2312588,-1811
2312606,-1810
2312649,-1814
2312670,-1894
2312691,-2051
2312734,-2098
2312755,-1477
2312777,-1279
2312819,-1430
2312840,-1644
2312862,-1247
2312904,-836
2312925,-1028
2312947,-1264
2312989,-1259
2313010,-1058
2313032,-1121
2313074,-1158
2313095,-886
2313207,-736
2313290,-956
2313334,-846
2313345,-1188
2313367,-847
2313409,-414
2313430,-453
2313452,-688
2313494,-706
2313515,-641
2313536,-872
2313578,-1092
2313584,-1128
2313602,-1019
2313640,-927
2313682,-897
2313688,-845
2313708,-876
2313751,-909
2313771,-558
2313793,-430
2313835,-656
2313856,-1234
2313877,-851
2313920,-238
2313925,1
2313943,-343
2313965,-841
2314007,-1002
2314027,-504
2314049,-525
2314091,-726
2314112,-879
2314134,-912
2314176,-949
2314181,-815
2314199,-454
2314219,-124
2314360,-153
2314406,-442
2314450,-1303
2314471,-545
2314513,-587
2314534,-1123
2314555,-1002
2314598,-754
2314618,-1025
2314640,-1287
2314682,-1237
2314705,-856
2314743,-983
2314785,-1135
2314791,-636
2314811,-366
2314853,-419
2314874,-742
2314895,-653
2314938,-592
2314959,-991
2314980,-1066
2315023,-863
2315043,-420
2315065,-530
2315107,-677
2315112,-593
2315131,-283
2315152,-73
2315194,-247
2315215,-1010
2315237,-876
2315279,-457
2315300,-320
2315321,-657
2315364,-811
2315386,-317
2315496,-177
2315578,-641
2315622,-899
2315635,-777
2315657,-774
2315699,-968
2315720,-1030
2315741,-727
2315783,-527
2315789,-580
2315807,-717
2315845,-665
2315887,-445
2315893,-540
2315913,-865
2315955,-1000
2315976,-706
2315998,-699
2316040,-781
2316061,-390
2316082,-45
2316124,22
2316129,-209
2316148,-458
2316169,-477
2316212,-365
2316232,-859
2316254,-1362
2316296,-1588
2316317,-1169
2316338,-1065
2316381,-1151
2316402,-1003
2316423,-612
2316466,-252
2316471,-115
2316489,-195
2316511,-320
2316651,-281
2316698,-568
2316741,-124
2316760,-394
2316803,-280
2316823,-125
2316845,-312
2316887,-433
2316892,-310
2317049,-75
2317133,110
2317177,-211
2317183,-327
2317226,-667
2317243,-117
2317264,318
2317307,260
2317327,-204
2317349,124
2317391,409
2317413,-647
2317435,-1119
2317477,-903
2317498,-282
2317520,-629
2317562,-903
2317583,-12
2317604,331
2317647,129
2317669,-628
2317781,-663
2317863,-541
2317908,-207
2317919,-147
2317940,-447
2317983,-702
2318003,-523
2318025,-324
2318067,-288
2318088,-408
2318109,-314
2318151,-155
2318156,-114
2318175,-244
2318196,-430
2318238,-522
2318277,-427
2318282,-438
2318324,-529
2318344,-562
2318365,-438
2318407,-337
2318412,-371
2318431,-546
2318452,-762
2318495,-869
2318515,-543
2318537,-310
2318579,-208
2318601,-246
2318623,-146
2318665,13
2318685,-133
2318707,-412
2318749,-566
2318771,-393
2318791,-385
2318932,-461
2318978,-263
2319041,-170
2319086,-246
2319129,-164
2319172,-206
2319188,625
2319210,434
2319252,-66
2319274,-105
2319296,288
2319338,366
2319359,-506
2319380,-713
2319422,-564
2319427,-333
2319446,-274
2319483,-360
2319524,-357
2319530,242
2319552,450
2319592,453
2319597,458
2319615,657
2319637,944
2319677,974
2319682,600
2319702,113
2319723,-72
2319763,146
2319768,474
2319788,594
2319810,469
2319850,257
2319855,63
2319875,-121
2319896,-239
2319936,-175
2319941,4
2319959,38
2320069,-228
2320147,-135
2320189,-710
2320210,-836
2320231,-958
2320270,-1033
2320276,-1024
2320296,-913
2320317,-721
2320357,-534
2320362,-465
2320380,-502
2320402,-473
2320442,-292
2320447,-89
2320485,-116
2320490,-432
2320530,-780
2320535,-865
2320553,-686
2320575,-517
2320615,-603
2320620,-859
2320640,-1035
2320661,-993
2320701,-833
2320706,-765
2320725,-795
2320746,-757
2320786,-534
2320791,-200
2320811,16
2320832,-22
2320872,-195
2320877,-298
2320897,-238
2320919,-121
2320958,-83
2320963,-100
2320983,-18
2321005,281
2321044,737
2321050,1198
2321070,1612
2321092,2080
2321230,2714
2321274,6345
2321317,7055
2321322,6559
2321343,6024
2321385,5384
2321406,3862
2321444,3003
2321486,2069
2321492,114
2321512,-562
2321554,-856
2321559,-938
2321577,-1154
2321599,-1633
2321641,-2093
2321662,-1748
2321683,-1371
2321726,-1456
2321746,-2139
2321768,-1858
2321811,-1290
2321831,-1184
2321853,-1524
2321896,-1617
2321917,-1293
2321938,-1321
2321981,-1377
2322002,-1220
2322024,-1299
2322067,-1511
2322087,-1357
2322109,-1042
2322152,-950
2322171,-1278
2322193,-1289
2322236,-1214
2322257,-1147
2322365,-1047
2322449,-1059
2322494,-247
2322533,-85
2322576,-156
2322592,-138
2322613,-303
2322656,-557
2322676,-492
2322698,-315
2322740,-313
2322761,-86
2322782,467
2322825,891
2322847,441
2322868,281
2322911,576
2322931,910
2322953,408
2322995,-102
2323016,116
2323037,463
2323080,614
2323102,656
2323122,795
2323165,959
2323170,1070
2323188,1115
2323208,1096
2323251,993
2323273,605
2323295,460
2323337,438
2323358,592
2323379,567
2323521,446
2323567,1270
2323611,1763
2323629,1799
2323672,1680
2323693,1626
2323715,1510
2323791,1327
2323798,1497
2323841,1617
2323862,1631
2323883,1622
2323927,1623
2323947,1746
2323969,1830
2324012,1814
2324031,1647
2324053,1756
2324096,2015
2324117,2183
2324139,1930
2324182,1681
2324201,1722
2324223,1798
2324266,1687
2324287,1353
2324309,1563
2324352,1916
2324373,1858
2324393,1547
2324436,1489
2324457,1761
2324479,1474
2324522,1041
2324542,1128
2324654,1318
2324738,1021
2324784,363
2324793,424
2324814,142
2324857,-134
2324878,-236
2324899,-389
2324975,-727
2324983,-869
2325026,-672
2325047,-867
2325068,-1035
2325111,-1054
2325131,-798
2325152,-720
2325195,-773
2325215,-1169
2325237,-1266
2325280,-1176
2325301,-835
2325322,-840
2325365,-924
2325387,-895
2325407,-878
2325450,-994
2325471,-1292
2325492,-1273
2325535,-1217
2325556,-1511
2325577,-1737
2325620,-1757
2325641,-1046
2325663,-698
2325804,-613
2325850,-691
2325894,-1095
2325913,-724
2325956,-627
2325977,-620
2325998,-657
2326041,-737
2326062,-839
2326083,-827
2326159,-852
2326167,-1092
2326210,-1051
2326231,-981
2326252,-962
2326295,-864
2326316,-739
2326337,-843
2326380,-904
2326401,-509
2326422,-381
2326465,-490
2326486,-715
2326507,-592
2326550,-494
2326571,-647
2326592,-683
2326635,-667
2326656,-737
2326677,-680
2326720,-510
2326741,-477
2326762,-600
2326805,-543
2326825,-58
2326937,-155
2327020,-140
2327065,-510
2327076,-431
2327098,-638
2327140,-658
2327161,-513
2327183,-801
2327226,-1105
2327246,-629
2327268,-376
2327344,-628
2327352,-841
2327395,-254
2327415,-426
2327437,-804
2327480,-885
2327500,-768
2327522,-887
2327565,-902
2327585,-467
2327607,-464
2327650,-609
2327670,-329
2327692,-79
2327734,-209
2327755,-1066
2327777,-969
2327819,-493
2327840,-86
2327862,-320
2327904,-426
2327925,-22
2327946,3
2328087,-212
2328134,-975
2328178,-543
2328197,-999
2328240,-878
2328260,-118
2328282,-161
2328324,-506
2328345,-703
2328367,-449
2328409,-356
2328432,-795
2328452,-877
2328494,-788
2328533,-854
2328538,-971
2328581,-934
2328600,-633
2328623,-665
2328666,-786
2328687,-793
2328708,-694
2328751,-591
2328772,-340
2328793,-245
2328836,-252
2328856,-485
2328878,-592
2328921,-668
2328941,-746
2328963,-722
2329006,-676
2329026,-492
2329048,-296
2329090,-122
2329111,-269
2329221,-493
2329304,-741
2329349,-694
2329362,-700
2329383,-550
2329426,-479
2329447,-675
2329468,-718
2329511,-665
2329532,-524
2329553,-442
2329596,-362
2329617,-437
2329638,-472
2329681,-378
2329720,-206
2329725,-357
2329768,-494
2329786,-429
2329886,-558
2329931,-773
2329974,-736
2330019,-512
2330038,-27
2330059,-262
2330102,-735
2330122,-1256
2330144,-971
2330187,-598
2330208,-718
2330229,-950
2330370,-872
2330417,-666
2330461,-883
2330479,-439
2330522,-424
2330543,-966
2330564,-829
2330607,-419
2330628,-489
2330649,-984
2330692,-1145
2330713,-261
2330735,-147
2330777,-485
2330798,-961
2330820,-766
2330863,-649
2330883,-1018
2330905,-1079
2330948,-980
2330987,-704
2330992,-477
2331034,-160
2331053,-90
2331075,-425
2331118,-690
2331138,-618
2331160,-501
2331203,-429
2331223,-558
2331245,-854
2331288,-1073
2331308,-367
2331330,-3
2331372,-260
2331393,-1269
2331505,-831
2331588,-490
2331633,98
2331644,-84
2331665,-49
2331708,2
2331728,296
2331750,334
2331793,211
2331813,205
2331835,389
2331878,359
2331899,-334
2331920,-466
2331963,-369
2331984,-372
2332005,-520
2332048,-530
2332069,-327
2332090,-438
2332133,-633
2332154,-499
2332192,-233
2332235,-148
2332240,-698
2332260,-815
2332302,-580
2332323,-112
2332345,-399
2332386,-809
2332391,-955
2332409,-758
2332431,-502
2332471,-473
2332477,-647
2332495,-820
2332516,-828
2332655,-716
2332699,-524
2332740,-904
2332746,-1446
2332768,-1469
2332808,-1203
2332813,-881
2332833,-792
2332855,-956
2332895,-1029
2332900,-717
2332918,-165
2332940,163
2332980,-9
2332985,-424
2333005,-566
2333026,-265
2333067,145
2333072,267
2333090,139
2333112,149
2333152,585
2333190,1320
2333198,2621
2333239,3211
2333244,3872
2333262,4469
2333282,4882
2333324,5197
2333329,5606
2333348,6091
2333369,6377
2333412,6257
2333433,5453
2333454,5136
2333498,4692
2333518,2860
2333540,1796
2333583,838
2333602,-702
2333625,-1205
2333668,-1523
2333687,-2134
2333797,-2418
2333880,-1605
2333925,-1516
2333938,-857
2333959,-990
2334002,-1386
2334023,-1446
2334045,-1100
2334088,-1020
2334108,-1653
2334130,-1650
2334173,-1335
2334193,-869
2334214,-803
2334290,-676
2334298,-965
2334342,-1243
2334362,-1113
2334384,-1020
2334427,-1139
2334448,-1462
2334468,-1331
2334511,-1075
2334532,-789
2334554,-812
2334597,-842
2334617,-689
2334638,-521
2334681,-436
2334702,-811
2334723,-1010
2334767,-949
2334786,-466
2334807,-498
2334949,-705
2334996,-571
2335040,-434
2335058,-457
2335101,-304
2335122,-184
2335143,-371
2335186,-571
2335207,-508
2335229,-338
2335272,-242
2335291,-253
2335312,-170
2335355,20
2335376,380
2335397,450
2335440,479
2335479,413
2335484,296
2335527,218
2335546,263
2335568,180
2335610,19
2335632,202
2335654,447
2335696,445
2335717,0
2335738,145
2335781,498
2335801,468
2335823,154
2335865,97
2335886,702
2335909,777
2335952,601
2335972,349
2336082,458
2336165,712
2336210,1210
2336221,971
2336243,789
2336286,698
2336306,809
2336328,813
2336371,681
2336392,561
2336413,836
2336456,1203
2336477,1323
2336498,1079
2336541,851
2336562,583
2336584,473
2336627,421
2336647,463
2336669,358
2336745,157
2336753,-70
2336795,-191
2336816,-818
2336838,-1118
2336880,-1295
2336901,-1241
2336923,-1175
2336966,-1218
2336986,-1389
2337008,-1265
2337051,-1063
2337071,-1169
2337093,-1465
2337234,-1704
2337281,-2031
2337325,-1512
2337342,-1612
2337385,-1652
2337406,-1197
2337428,-1247
2337471,-1649
2337492,-1859
2337513,-1432
2337556,-1311
2337577,-2432
2337599,-2557
2337642,-2050
2337661,-1445
2337682,-1818
2337725,-2038
2337746,-1374
2337768,-1198
2337811,-1376
2337832,-1707
2337869,-1693
2337912,-1826
2337918,-2375
2337938,-2208
2337981,-1738
2338002,-1414
2338024,-1630
2338066,-1594
2338087,-733
2338109,-691
2338151,-983
2338172,-957
2338193,-659
2338236,-721
2338256,-1396
2338368,-1164
2338451,-1367
2338496,-1261
2338507,-1088
2338528,-932
2338571,-992
2338591,-1018
2338613,-881
2338656,-888
2338676,-1027
2338698,-775
2338740,-526
2338763,-879
2338784,-1051
2338827,-866
2338847,-429
2338869,-686
2338911,-999
2338932,-800
2338953,-588
2339239,-663
2339364,-1145
2339509,-1024
2339593,-632
2339637,-751
2339681,-833
2339698,-698
2339741,-705
2339763,-990
2339785,-966
2339827,-745
2339848,-625
2339869,-933
2339912,-1150
2339932,-528
2339954,-284
2339996,-532
2340017,-1103
2340039,-670
2340081,-201
2340103,-857
2340125,-1251
2340167,-1005
2340188,-281
2340210,-732
2340252,-1228
2340273,-567
2340294,-202
2340337,-443
2340357,-1098
2340379,-723
2340421,-283
2340442,-613
2340463,-894
2340506,-786
2340511,-397
2340648,-85
2340750,-805
2340794,-723
2340839,-428
2340883,-227
2340926,-369
2340945,-351
2340967,-471
2341009,-518
2341030,-282
2341051,-312
2341094,-534
2341114,-798
2341136,-658
2341178,-554
2341201,-839
2341222,-920
2341264,-744
2341285,-158
2341307,-131
2341349,-246
2341370,-247
2341391,-123
2341434,-75
2341456,-395
2341477,-624
2341520,-746
2341540,-453
2341562,-306
2341604,-425
2341625,-863
2341646,-622
2341787,-141
2341833,-54
2341877,-893
2341897,-430
2341940,-194
2341978,-787
2341983,-953
2342026,-794
2342045,-522
2342066,-589
2342109,-546
2342131,-366
2342153,-564
2342195,-797
2342215,-518
2342237,-395
2342279,-629
2342300,-1136
2342322,-891
2342364,-534
2342386,-352
2342406,-336
2342449,-244
2342454,-216
2342472,-294
2342494,-370
2342536,-352
2342556,-450
2342579,-627
2342621,-666
2342641,-309
2342663,-328
2342705,-485
2342726,-388
2342747,-205
2342790,-177
2342795,-300
2342813,-426
2342923,-494
2343006,-516
2343050,-584
2343089,-47
2343131,-352
2343147,-274
2343169,-358
2343211,-571
2343232,-610
2343253,-500
2343296,-535
2343316,-613
2343338,-381
2343380,-123
2343402,6
2343424,35
2343466,122
2343487,67
2343508,-42
2343550,-44
2343573,159
2343594,80
2343637,-193
2343657,-611
2343679,-517
2343721,-333
2343742,-497
2343763,-708
2343806,-674
2343827,-64
2343848,7
2343890,-155
2343895,-332
2343913,-367
2343935,-320
2344076,-331
2344121,-393
2344165,85
2344184,101
2344226,194
2344231,269
2344250,290
2344287,300
2344330,322
2344335,167
2344355,20
2344396,-16
2344401,69
2344420,122
2344441,54
2344481,-42
2344486,-22
2344506,142
2344527,325
