timestamp,ECG_Raw
1533165,-6796
1533269,-3768
1533325,-792
1533378,-3997
1533432,-2931
1533448,-2686
1533501,-3457
1533512,-2251
1533533,-1526
1533586,-1870
1533690,-3197
1533746,485
1533800,-13
1533853,-214
1533868,-1095
1533920,-1058
1533931,-447
1533953,-458
1534005,-563
1534016,-176
1534038,153
1534090,388
1534101,495
1534122,104
1534174,-508
1534185,-1078
1534207,-860
1534259,-689
1534272,-875
1534292,-975
1534344,-1065
1534357,-960
1534378,-608
1534431,-399
1534441,-1156
1534487,-1293
1534540,-16
1534546,-561
1534599,-1463
1534610,-2439
1534631,-3016
1534684,-3831
1534695,-4520
1534717,-4475
1534868,-4819
1534925,-5934
1534979,-5752
1535032,-6093
1535050,-4107
1535103,-3353
1535114,-2570
1535135,-2002
1535188,-1613
1535198,-2065
1535220,-2044
1535273,-1521
1535284,-1222
1535305,-1813
1535358,-2020
1535369,-610
1535390,-320
1535443,-736
1535454,-1251
1535475,-918
1535528,-853
1535539,-1716
1535560,-1772
1535613,-1517
1535624,-1534
1535646,-1615
1535748,-1315
1535803,-346
1535813,579
1535865,535
1535876,654
1535995,832
1536098,-152
1536153,643
1536207,1952
1536213,1697
1536230,1765
1536282,2034
1536293,1835
1536315,1454
1536367,1544
1536380,2774
1536401,2741
1536453,2192
1536464,2220
1536486,3014
1536538,3528
1536549,3336
1536570,3655
1536622,4556
1536635,6126
1536656,6334
1536708,6536
1536719,7454
1536741,7723
1536793,7673
1536804,7015
1536826,6411
1536877,5575
1536890,3783
1536910,3061
1536962,2252
1536975,25
1537013,-903
1537163,-1353
1537268,-769
1537323,-1400
1537329,-1467
1537382,-1409
1537391,-1432
1537413,-1372
1537466,-1095
1537477,-83
1537498,229
1537550,224
1537561,-28
1537583,21
1537635,37
1537646,-451
1537667,-547
1537719,-335
1537732,-47
1537753,-309
1537805,-553
1537816,-599
1537838,-788
1537890,-1082
1537902,-990
1537924,-659
1537975,-469
1537987,-443
1538009,-283
1538058,-18
1538072,365
1538094,326
1538144,137
1538156,-84
1538179,158
1538327,470
1538381,1360
1538464,937
1538516,1546
1538567,1247
1538575,1298
1538596,1188
1538646,1115
1538658,1364
1538680,1440
1538729,1348
1538744,1237
1538765,1313
1538814,1314
1538829,1009
1538850,902
1538899,880
1538914,1137
1538935,1371
1538984,1467
1539000,1072
1539021,1069
1539070,1399
1539085,1656
1539106,1241
1539155,934
1539169,1348
1539190,1410
1539239,1138
1539255,833
1539276,940
1539324,895
1539339,498
1539458,555
1539550,967
1539600,659
1539609,649
1539655,601
1539674,370
1539712,229
1539758,254
1539780,748
1539825,372
1539843,116
1539864,547
1539910,817
1539928,24
1539949,-330
1539995,-255
1540012,-234
1540034,-767
1540080,-1256
1540097,-1173
1540119,-1047
1540164,-1158
1540183,-1204
1540205,-911
1540249,-716
1540268,-1099
1540290,-1330
1540334,-1358
1540353,-1304
1540375,-1536
1540419,-1870
1540438,-2058
1540460,-1855
1540602,-1712
1540650,-1530
1540695,-1231
1540709,-1403
1540753,-1801
1540774,-1307
1540795,-829
1540838,-831
1540858,-1332
1540897,-961
1540939,-385
1540944,-584
1540964,-1074
1541007,-1061
1541029,71
1541050,-19
1541092,-724
1541113,-1306
1541134,-762
1541176,-456
1541181,-860
1541200,-1614
1541221,-1974
1541263,-1704
1541284,-1240
1541305,-1544
1541347,-1696
1541352,-1433
1541370,-1015
1541392,-842
1541433,-959
1541438,-1072
1541456,-948
1541478,-610
1541519,-261
1541524,-87
1541543,-185
1541564,-495
1541605,-770
1541610,-733
1541628,-382
1541742,-83
1541821,-173
1541864,-472
1541879,-159
1541916,-398
1541957,-625
1541963,-130
1541984,143
1542025,87
1542030,-130
1542050,-162
1542071,106
1542112,439
1542117,509
1542135,190
1542156,-310
1542197,-655
1542202,-670
1542222,-466
1542243,-268
1542284,-216
1542289,-282
1542307,-372
1542329,-406
1542370,-334
1542375,-156
1542393,27
1542416,20
1542456,-290
1542461,-683
1542480,-767
1542501,-453
1542542,-110
1542547,-218
1542565,-753
1542587,-1201
1542627,-1117
1542632,-674
1542652,-466
1542674,-788
1542714,-1322
1542769,-1552
1542909,-911
1542954,-785
1542995,-814
1543008,-1367
1543048,-1277
1543053,-981
1543071,-812
1543093,-961
1543133,-1313
1543138,-1551
1543158,-1487
1543180,-1214
1543220,-984
1543225,-975
1543243,-1126
1543265,-1217
1543305,-1083
1543310,-797
1543330,-599
1543352,-678
1543392,-921
1543397,-1036
1543416,-884
1543437,-629
1543478,-570
1543483,-752
1543502,-893
1543524,-707
1543564,-300
1543569,-82
1543587,-276
1543609,-641
1543649,-768
1543654,-546
1543674,-272
1543712,-274
1543752,-498
1543760,-460
1543781,-182
1543821,-49
1543826,-111
1543845,-162
1543945,-78
1544086,-800
1544166,-705
1544208,-397
1544249,-915
1544261,-836
1544283,-519
1544323,-255
1544328,-138
1544348,-110
1544369,-113
1544409,-122
1544414,-124
1544434,-73
1544456,14
1544496,2
1544500,-279
1544519,-755
1544542,-1111
1544582,-1080
1544587,-759
1544605,-527
1544627,-619
1544667,-896
1544672,-1016
1544692,-843
1544713,-531
1544753,-260
1544758,-88
1544778,-36
1544816,-165
1544856,-496
1544863,-815
1544885,-473
1544925,-159
1544930,-238
1544948,-648
1544970,-894
1545009,-637
1545015,-74
1545034,346
1545056,357
1545096,100
1545101,-138
1545121,-214
1545229,-148
1545307,-454
1545313,78
1545353,131
1545372,-530
1545394,-555
1545434,-214
1545439,165
1545459,204
1545480,-118
1545520,-459
1545525,-510
1545544,-288
1545565,-81
1545605,-115
1545610,-314
1545630,-466
1545652,-506
1545692,-524
1545697,-557
1545716,-481
1545738,-209
1545778,72
1545816,26
1545823,-843
1545863,-902
1545869,-598
1545887,-361
1545908,-514
1545949,-872
1545954,-1001
1545974,-765
1545995,-440
1546035,-364
1546040,-523
1546058,-630
1546080,-556
1546120,-480
1546125,-612
1546145,-856
1546166,-918
1546206,-680
1546211,-376
1546231,-367
1546253,-683
1546391,-996
1546434,-1490
1546475,-874
1546482,-725
1546504,-946
1546543,-965
1546549,-741
1546568,-492
1546590,-450
1546630,-615
1546635,-841
1546655,-1015
1546676,-1128
1546716,-1175
1546754,-1163
1546761,-1149
1546801,-1186
1546806,-1135
1546825,-962
1546846,-820
1546886,-904
1546891,-1159
1546911,-1308
1546933,-1186
1546973,-975
1546978,-1005
1546998,-1339
1547019,-1659
1547059,-1656
1547064,-1406
1547083,-1270
1547104,-1418
1547144,-1657
1547149,-1695
1547170,-1518
1547191,-1347
1547231,-1363
1547236,-1507
1547256,-1605
1547278,-1554
1547318,-1397
1547323,-1227
1547341,-1108
1547363,-1079
1547403,-1136
1547408,-1204
1547428,-1189
1547537,-1098
1547615,-1222
1547690,-1751
1547698,-1861
1547738,-2176
1547743,-2293
1547763,-2074
1547785,-1747
1547825,-1674
1547830,-1914
1547849,-2106
1547870,-1945
1547910,-1516
1547915,-1147
1547935,-994
1547957,-863
1547996,-566
1548001,-180
1548021,76
1548042,201
1548082,447
1548087,1041
1548107,1864
1548128,2588
1548168,3026
1548173,3317
1548193,3686
1548215,4177
1548254,4599
1548259,4705
1548279,4424
1548301,3873
1548341,3205
1548346,2482
1548365,1676
1548386,749
1548426,-251
1548431,-1198
1548469,-2040
1548474,-2757
1548514,-3335
1548519,-3734
1548537,-3911
1548559,-3880
1548697,-3795
1548741,-3470
1548781,-3500
1548789,-3635
1548810,-3360
1548850,-3080
1548855,-2991
1548875,-3065
1548895,-3080
1548935,-2872
1548940,-2524
1548960,-2329
1548982,-2492
1549022,-2931
1549027,-3323
1549047,-3367
1549067,-3064
1549107,-2744
1549112,-2719
1549132,-2961
1549154,-3125
1549194,-2985
1549199,-2686
1549219,-2552
1549239,-2647
1549280,-2755
1549285,-2694
1549305,-2583
1549343,-2595
1549383,-2695
1549390,-2519
1549410,-2421
1549450,-2505
1549456,-2608
1549476,-2516
1549497,-2295
1549537,-2170
1549543,-2154
1549561,-1992
1549583,-1610
1549623,-1338
1549628,-1464
1549648,-1829
1549670,-1934
1549710,-1613
1549715,-1247
1549733,-1289
1549843,-1664
1549921,-1712
1549963,-1568
1549984,-1527
1550006,-931
1550046,-641
1550051,-1011
1550071,-1635
1550091,-1769
1550131,-1239
1550136,-633
1550156,-635
1550177,-1280
1550217,-1872
1550222,-1864
1550261,-1403
1550266,-1083
1550306,-1189
1550326,-1395
1550348,-1127
1550388,-997
1550393,-1156
1550413,-1366
1550435,-1315
1550475,-1071
1550480,-960
1550500,-1084
1550521,-1175
1550561,-952
1550566,-515
1550584,-238
1550606,-306
1550646,-527
1550651,-583
1550671,-438
1550692,-342
1550732,-496
1550737,-779
1550757,-924
1550779,-799
1550818,-535
1550823,-370
1550843,-399
1550865,-515
1551003,-575
1551046,-705
1551087,-532
1551094,-462
1551116,-559
1551156,-613
1551161,-601
1551198,-620
1551204,-703
1551243,-777
1551248,-760
1551267,-672
1551288,-623
1551328,-638
1551333,-616
1551353,-495
1551374,-410
1551414,-558
1551419,-904
1551439,-1162
1551461,-1072
1551501,-757
1551506,-619
1551524,-914
1551546,-1424
1551585,-1703
1551591,-1509
1551611,-1053
1551632,-814
1551672,-1052
1551677,-1543
1551697,-1867
1551719,-1810
1551759,-1542
1551764,-1428
1551782,-1627
1551804,-1991
1551843,-2224
1551849,-2184
1551869,-2014
1551890,-1943
1551930,-2058
1551968,-2259
1551976,-2382
1552016,-2329
1552021,-2382
1552039,-2586
1552150,-2817
1552227,-3093
1552269,-2807
1552290,-3063
1552311,-3102
1552351,-3092
1552356,-3148
1552376,-3265
1552398,-3329
1552438,-3271
1552443,-3178
1552462,-3187
1552483,-3270
1552523,-3302
1552529,-3251
1552548,-3230
1552570,-3293
1552610,-3346
1552615,-3251
1552634,-3012
1552655,-2738
1552695,-2542
1552701,-2418
1552721,-2327
1552742,-2251
1552782,-2207
1552787,-2169
1552806,-2116
1552828,-2102
1552900,-2202
1552912,-2521
1552952,-2466
1552957,-2457
1552976,-2511
1552997,-2520
1553037,-2429
1553042,-2293
1553062,-2204
1553084,-2157
1553124,-2064
1553129,-1909
1553148,-1804
1553169,-1858
1553308,-1999
1553351,-2428
1553392,-2076
1553399,-2334
1553421,-2331
1553461,-2020
1553466,-1677
1553486,-1640
1553508,-1880
1553548,-2073
1553553,-1994
1553571,-1816
1553593,-1821
1553633,-2027
1553638,-2160
1553658,-2026
1553680,-1755
1553720,-1644
1553725,-1772
1553743,-1955
1554076,-1982
1554230,-1863
1554308,-2190
1554449,-2333
1554528,-1851
1554569,-1841
1554575,-2012
1554593,-2112
1554633,-2221
1554638,-2281
1554657,-2211
1554678,-2039
1554718,-1853
1554723,-1738
1554743,-1676
1554842,-1571
1554884,-1232
1554925,-1992
1554931,-2158
1554971,-2176
1554976,-2118
1554996,-1982
1555018,-1869
1555058,-1853
1555063,-1885
1555083,-1825
1555105,-1633
1555144,-1473
1555150,-1497
1555168,-1687
1555190,-1880
1555230,-1895
1555235,-1724
1555255,-1501
1555276,-1355
1555349,-1365
1555361,-1593
1555400,-1488
1555406,-1371
1555424,-1302
1555446,-1286
1555485,-1291
1555589,-1334
1555632,-1124
1555672,-1573
1555678,-1257
1555698,-1112
1555738,-1315
1555743,-1679
1555763,-1839
1555785,-1659
1555825,-1363
1555830,-1291
1555848,-1510
1555870,-1815
1555910,-1965
1555915,-1870
1555935,-1633
1555957,-1473
1555996,-1551
1556002,-1797
1556022,-1941
1556043,-1769
1556083,-1391
1556088,-1124
1556107,-1173
1556128,-1391
1556168,-1461
1556173,-1283
1556211,-1095
1556216,-1149
1556256,-1378
1556261,-1467
1556278,-1261
1556300,-942
1556340,-820
1556345,-947
1556365,-1074
1556386,-913
1556426,-524
1556431,-257
1556451,-353
1556473,-702
1556512,-947
1556517,-909
1556537,-786
1556559,-839
1556599,-1065
1556604,-1213
1556624,-1092
1556736,-858
1556813,-957
1556855,-1512
1556874,-1037
1556895,-1013
1556935,-1094
1556940,-1111
1556959,-1002
1556980,-849
1557020,-800
1557025,-937
1557045,-1165
1557067,-1283
1557107,-1196
1557144,-1026
1557152,-1126
1557192,-1182
1557197,-954
1557217,-581
1557238,-448
1557278,-712
1557283,-1089
1557303,-1141
1557325,-823
1557365,-543
1557370,-648
1557388,-987
1557409,-1126
1557449,-880
1557454,-511
1557474,-449
1557496,-753
1557535,-1049
1557541,-1006
1557561,-705
1557582,-533
1557622,-733
1557627,-1113
1557647,-1253
1557669,-998
1557708,-611
1557713,-468
1557733,-634
1557755,-846
1557893,-868
1557936,-553
1557976,-688
1557984,-473
1558006,-473
1558045,-690
1558083,-965
1558091,-920
1558131,-723
1558136,-667
1558156,-792
1558177,-975
1558217,-1027
1558222,-901
1558242,-757
1558263,-820
1558303,-1148
1558308,-1544
1558327,-1698
1558348,-1560
1558388,-1386
1558393,-1484
1558413,-1810
1558435,-1992
1558475,-1767
1558480,-1371
1558500,-1282
1558520,-1648
1558560,-2129
1558565,-2246
1558585,-1952
1558607,-1663
1558647,-1701
1558652,-1990
1558672,-2194
1558693,-2129
1558733,-1909
1558738,-1752
1558757,-1737
1558778,-1864
1558818,-2115
1558856,-2437
1558864,-2568
1558904,-2284
1558909,-2100
1558929,-2264
1559038,-2625
1559115,-2030
1559122,-2309
1559162,-2104
1559179,-2050
1559201,-2049
1559241,-1960
1559246,-1829
1559266,-1674
1559287,-1514
1559327,-1434
1559332,-1470
1559352,-1582
1559374,-1624
1559413,-1499
1559419,-1304
1559439,-1162
1559459,-1007
1559498,-628
1559503,0
1559524,647
1559546,1066
1559585,1354
1559590,1838
1559610,2646
1559631,3480
1559671,3991
1559676,4207
1559696,4459
1559717,4939
1559790,5424
1559802,4648
1559842,4179
1559847,3727
1559865,3055
1559887,2038
1559927,808
1559932,-366
1559952,-1314
1559974,-1997
1560014,-2493
1560019,-2882
1560039,-3191
1560059,-3436
1560197,-3604
1560241,-2885
1560281,-2598
1560289,-2159
1560310,-2322
1560350,-2579
1560355,-2678
1560375,-2580
1560397,-2485
1560437,-2517
1560442,-2591
1560462,-2545
1560484,-2342
1560523,-2148
1560529,-2123
1560547,-2215
1560569,-2232
1560608,-2149
1560614,-2128
1560634,-2285
1560672,-2493
1560711,-2461
1560719,-1660
1560741,-1506
1560780,-1711
1560786,-1970
1560804,-1945
1560826,-1620
1560865,-1288
1560871,-1309
1560891,-1744
1560912,-2261
1560952,-2456
1560957,-2196
1560977,-1777
1560999,-1636
1561039,-1839
1561044,-2059
1561062,-1937
1561084,-1538
1561124,-1282
1561129,-1405
1561149,-1690
1561171,-1769
1561210,-1580
1561215,-1427
1561235,-1519
1561342,-1664
1561419,-1205
1561426,-1382
1561466,-1387
1561486,-1345
1561508,-1239
1561548,-1178
1561553,-1138
1561710,-1012
1561788,-824
1561830,-900
1561841,-854
1561881,-802
1561886,-772
1561906,-687
1561927,-568
1561967,-564
1561972,-722
1561992,-890
1562014,-876
1562053,-703
1562058,-579
1562078,-622
1562100,-702
1562139,-648
1562145,-543
1562165,-606
1562186,-877
1562226,-1076
1562231,-892
1562251,-392
1562272,2
1562312,-33
1562317,-343
1562337,-497
1562358,-225
1562496,290
1562540,-158
1562580,43
1562587,-266
1562609,-168
1562649,48
1562654,168
1562674,124
1562695,10
1562768,-76
1562779,-253
1562819,-262
1562824,-236
1562844,-253
1562865,-328
1562905,-329
1562910,-144
1562930,143
1562951,245
1562991,8
1562996,-403
1563016,-696
1563038,-758
1563078,-775
1563083,-923
1563101,-1157
1563123,-1290
1563163,-1281
1563168,-1268
1563188,-1373
1563209,-1485
1563249,-1432
1563255,-1266
1563275,-1268
1563296,-1569
1563336,-1986
1563341,-2185
1563360,-2066
1563381,-1836
1563421,-1797
1563426,-1999
1563447,-2228
1563468,-2283
1563508,-2169
1563513,-2039
1563649,-2039
1563727,-2268
1563769,-2128
1563780,-2405
1563802,-2409
1563842,-2334
1563847,-2287
1563867,-2278
1563889,-2224
1563928,-2126
1563934,-2063
1563954,-2031
1563975,-1915
1564015,-1738
1564020,-1703
1564039,-1929
1564060,-2202
1564100,-2188
1564105,-1851
1564125,-1599
1564147,-1781
1564187,-2256
1564192,-2523
1564212,-2303
1564232,-1858
1564272,-1627
1564277,-1759
1564297,-2014
1564319,-2101
1564359,-1974
1564364,-1768
1564384,-1624
1564405,-1599
1564445,-1707
1564483,-1879
1564489,-2015
1564529,-1920
1564534,-1821
1564554,-1781
1564576,-1754
1564616,-1674
1564621,-1594
1564641,-1584
1564663,-1603
1564801,-1526
1564844,-1626
1564885,-1471
1564892,-1335
1564912,-1394
1564952,-1469
1564957,-1448
1564977,-1249
1564999,-914
1565039,-634
1565044,-684
1565064,-1107
1565085,-1612
1565125,-1790
1565130,-1528
1565150,-1156
1565172,-1120
1565212,-1488
1565217,-1851
1565235,-1812
1565257,-1372
1565297,-916
1565302,-801
1565322,-1029
1565360,-1302
1565399,-1366
1565407,-1152
1565429,-1234
1565469,-1405
1565474,-1514
1565492,-1495
1565514,-1424
1565553,-1391
1565559,-1377
1565579,-1321
1565600,-1224
1565640,-1171
1565645,-1198
1565665,-1242
1565764,-1222
1565806,-1487
1565945,-1413
1566024,-844
1566066,-1095
1566082,-967
1566103,-1416
1566143,-1655
1566148,-1445
1566167,-1015
1566188,-786
1566228,-869
1566233,-1050
1566253,-1075
1566275,-938
1566314,-861
1566319,-979
1566339,-1230
1566361,-1470
1566401,-1617
1566439,-1664
1566446,-1441
1566486,-1288
1566491,-1294
1566510,-1425
1566531,-1499
1566571,-1410
1566576,-1277
1566596,-1303
1566618,-1472
1566658,-1549
1566663,-1411
1566683,-1213
1566704,-1178
1566744,-1236
1566749,-1128
1566768,-814
1566789,-615
1566829,-776
1566834,-1096
1566854,-1188
1566876,-1016
1566916,-950
1566921,-1212
1566941,-1526
1566962,-1521
1567101,-1253
1567144,-563
1567184,-1186
1567192,-517
1567213,-338
1567253,-556
1567258,-852
1567278,-884
1567300,-760
1567372,-775
1567384,-1048
1567424,-839
1567429,-774
1567448,-926
1567470,-1105
1567510,-1096
1567515,-930
1567533,-838
1567555,-974
1567595,-1250
1567600,-1422
1567620,-1397
1567641,-1316
1567681,-1360
1567686,-1468
1567706,-1417
1567728,-1159
1567768,-950
1567773,-1049
1567791,-1357
1567813,-1485
1567853,-1183
1567858,-669
1567878,-389
1567899,-528
1567939,-844
1567944,-983
1567964,-847
1567986,-638
1568025,-623
1568030,-850
1568050,-1152
1568072,-1358
1568112,-1387
1568248,-1328
1568327,-385
1568368,-605
1568384,-855
1568406,-1083
1568446,-1129
1568451,-1070
1568471,-1061
1568492,-1064
1568532,-902
1568537,-589
1568557,-441
1568579,-697
1568618,-1153
1568623,-1323
1568642,-999
1568663,-586
1568703,-618
1568708,-1126
1568728,-1565
1568750,-1465
1568790,-956
1568795,-587
1568815,-677
1568836,-996
1568876,-1112
1568881,-926
1568901,-725
1568922,-772
1568962,-972
1568967,-1059
1568987,-952
1569007,-811
1569047,-815
1569052,-937
1569090,-1000
1569095,-922
1569135,-772
1569140,-673
1569158,-634
1569180,-590
1569220,-551
1569225,-572
1569245,-664
1569266,-757
1569405,-778
1569448,-892
1569488,-864
1569496,-980
1569517,-661
1569557,-413
1569562,-534
1569582,-901
1569604,-1105
1569644,-943
1569649,-646
1569669,-580
1569690,-767
1569730,-921
1569735,-864
1569754,-731
1569775,-748
1569816,-899
1569821,-961
1569841,-839
1569862,-729
1569903,-850
1569908,-1122
1569926,-1211
1569948,-939
1569988,-525
1569993,-359
1570031,-609
1570036,-1012
1570077,-1181
1570098,-790
1570119,-798
1570160,-1020
1570165,-1177
1570183,-1087
1570205,-895
1570245,-886
1570250,-1057
1570270,-1056
1570290,-645
1570330,-54
1570335,230
1570355,25
1570377,-344
1570417,-452
1570422,-250
1570442,-69
1570550,-186
1570628,-402
1570634,-283
1570674,-212
1570692,-25
1570715,-235
1570754,-615
1570759,-827
1570779,-632
1570801,-220
1570841,-59
1570846,-356
1570864,-778
1570887,-794
1570927,-337
1570932,137
1570970,159
1570975,-310
1571015,-891
1571036,-1180
1571057,-1011
1571097,-885
1571102,-884
1571122,-974
1571144,-1037
1571184,-973
1571189,-795
1571207,-651
1571230,-676
1571270,-807
1571275,-868
1571294,-819
1571315,-811
1571355,-961
1571360,-1184
1571380,-1260
1571402,-1126
1571442,-990
1571447,-1053
1571465,-1269
1571487,-1392
1571527,-1280
1571532,-1088
1571552,-1020
1571574,-1097
1571712,-1158
1571756,-1271
1571796,-1139
1571804,-1231
1571825,-1212
1571865,-1126
1571870,-980
1572203,-806
1572358,3848
1572438,6633
1572481,4392
1572489,2681
1572530,1481
1572535,420
1572553,-305
1572575,-786
1572616,-1231
1572621,-1656
1572639,-1947
1572661,-2064
1572702,-2170
1572707,-2336
1572725,-2417
1572834,-2248
1572913,-1680
1572956,-1256
1572975,-1529
1572997,-1579
1573037,-1539
1573043,-1467
1573061,-1416
1573083,-1414
1573123,-1402
1573128,-1330
1573147,-1235
1573168,-1175
1573209,-1136
1573214,-1090
1573233,-1040
1573254,-1032
1573295,-1088
1573300,-1163
1573338,-1183
1573343,-1171
1573384,-1242
1573404,-1365
1573426,-1147
1573466,-853
1573471,-742
1573489,-897
1573510,-1120
1573551,-1154
1573556,-985
1573575,-819
1573596,-824
1573637,-931
1573642,-983
1573662,-923
1573683,-817
1573724,-730
1573729,-629
1573747,-452
1573769,-240
1573809,-130
1573814,-190
1573833,-374
1573854,-589
1573993,-752
1574037,-1032
1574079,-327
1574085,67
1574106,52
1574147,210
1574152,503
1574170,626
1574191,431
1574232,157
1574237,135
1574275,318
1574280,315
1574321,-96
1574341,-773
1574363,-423
1574403,25
1574408,102
1574428,-220
1574450,-504
1574490,-371
1574495,99
1574514,474
1574535,450
1574576,154
1574581,-4
1574599,188
1574620,533
1574661,671
1574666,488
1574685,191
1574708,61
1574748,153
1574753,292
1574772,357
1574793,394
1574834,466
1574839,555
1574857,600
1574879,648
1574920,812
1574925,1035
1574943,1137
1574965,1038
1575006,917
1575011,1003
1575029,1238
1575139,1324
1575219,1367
1575262,1029
1575301,1043
1575343,818
1575363,244
1575385,173
1575426,426
1575431,791
1575449,919
1575471,734
1575511,477
1575517,418
1575536,607
1575558,855
1575599,988
1575604,946
1575622,754
1575644,455
1575685,164
1575690,21
1575708,109
1575729,296
1575770,295
1575775,-20
1575794,-477
1575815,-731
1575856,-639
1575861,-413
1575881,-417
1575902,-777
1575943,-1223
1575948,-1399
1575967,-1223
1575988,-973
1576029,-996
1576034,-1296
1576052,-1569
1576074,-1556
1576115,-1371
1576120,-1334
1576158,-1570
1576163,-1872
1576302,-1939
1576347,-1694
1576389,-1935
1576410,-1813
1576451,-1668
1576456,-1703
1576474,-1891
1576496,-2025
1576537,-1942
1576542,-1646
1576560,-1330
1576659,-1186
1576702,-1505
1576744,-844
1576750,-1366
1576790,-1635
1576795,-1520
1576814,-1197
1576835,-1113
1576876,-1454
1576881,-1876
1576900,-1886
1576922,-1415
1576962,-923
1576967,-892
1576986,-1296
1577007,-1615
1577048,-1469
1577053,-982
1577072,-642
1577093,-773
1577134,-1188
1577172,-1452
1577178,-1029
1577219,-802
1577224,-781
1577242,-832
1577264,-800
1577304,-696
1577309,-667
1577329,-798
1577441,-994
1577520,-1093
1577563,-804
1577579,-534
1577601,-390
1577641,-343
1577646,-437
1577665,-578
1577686,-612
1577727,-519
1577732,-439
1577750,-521
1577772,-725
1577813,-863
1577818,-791
1577836,-584
1577859,-448
1577900,-471
1577923,-525
1577944,-416
1577985,-334
1577990,-350
1578009,-378
1578030,-338
1578071,-247
1578076,-231
1578094,-334
1578132,-449
1578173,-488
1578179,-428
1578201,-464
1578242,-539
1578247,-625
1578265,-705
1578287,-761
1578327,-764
1578333,-700
1578351,-601
1578372,-558
1578413,-599
1578418,-685
1578437,-728
1578458,-688
1578598,-625
1578642,-688
1578684,-653
1578690,-349
1578710,-300
1578751,-483
1578756,-722
1578774,-688
1578796,-315
1578837,32
1578842,-45
1578861,-473
1578883,-741
1578924,-525
1578929,-85
1578947,2
1578968,-439
1579009,-945
1579014,-986
1579033,-603
1579054,-331
1579128,-510
1579138,-468
1579179,16
1579184,43
1579202,-433
1579224,-971
1579265,-1116
1579270,-816
1579288,-443
1579310,-405
1579351,-755
1579356,-1147
1579374,-1179
1579396,-783
1579437,-305
1579442,-165
1579460,-435
1579482,-781
1579523,-823
1579528,-556
1579546,-346
1579568,-462
1579609,-766
1579614,-903
1579634,-748
1579742,-553
1579822,-569
1579865,-799
1579884,-678
1579905,-743
1579946,-693
1579951,-493
1579970,-342
1579991,-403
1580032,-605
1580037,-734
1580055,-695
1580093,-589
1580134,-532
1580140,-546
1580162,-642
1580203,-813
1580208,-921
1580226,-783
1580248,-429
1580289,-155
1580294,-230
1580312,-572
1580334,-808
1580374,-685
1580380,-320
1580398,-68
1580419,-156
1580460,-456
1580465,-672
1580485,-644
1580505,-487
1580546,-438
1580551,-569
1580571,-682
1580593,-571
1580634,-303
1580639,-207
1580657,-457
1580679,-817
1580720,-858
1580725,-469
1580743,-72
1580764,-165
1580904,-717
1580949,-749
1580990,-410
1580996,-405
1581014,-561
1581088,-498
1581099,-566
1581141,-795
1581145,-708
1581164,-430
1581185,-306
1581226,-439
1581232,-575
1581250,-434
1581271,-161
1581312,-177
1581317,-591
1581336,-982
1581357,-900
1581398,-435
1581403,-132
1581422,-313
1581443,-713
1581484,-845
1581489,-614
1581508,-339
1581529,-300
1581570,-406
1581575,-452
1581594,-436
1581616,-479
1581657,-572
1581662,-531
1581680,-323
1581702,-203
1581743,-364
1581748,-635
1581766,-674
1581787,-429
1581829,-227
1581834,-358
1581872,-703
1581877,-871
1581918,-694
1581937,-359
1582047,-547
1582127,-95
1582170,-495
1582187,-527
1582209,-560
1582250,-637
1582255,-678
1582273,-543
1582295,-259
1582336,-60
1582341,-176
1582359,-526
1582381,-748
1582422,-603
1582427,-267
1582445,-202
1582466,-578
1582507,-1034
1582513,-1038
1582531,-522
1582552,26
1582593,79
1582598,-352
1582618,-738
1582640,-636
1582681,-197
1582686,42
1582704,-233
1582725,-788
1582767,-1104
1582772,-942
1582790,-553
1582811,-309
1582885,-298
1582895,-167
1582936,-232
1582941,-348
1582960,-322
1582981,-200
1583022,-250
1583027,-583
1583045,-925
1583067,-909
1583207,-538
1583251,-37
1583293,-270
1583299,-332
1583319,-228
1583360,-318
1583365,-524
1583383,-592
1583405,-421
1583446,-183
1583451,-78
1583469,-74
1583490,-13
1583531,161
1583536,333
1583555,410
1583577,395
1583617,298
1583622,97
1583641,-164
1583662,-288
1583702,-141
1583707,84
1583727,23
1583748,-390
1583788,-752
1583794,-605
1583813,-22
1583851,397
1583891,206
1583899,-656
1583920,-455
1583960,-94
1583965,-26
1583984,-286
1584007,-535
1584047,-523
1584052,-341
1584070,-208
1584091,-198
1584131,-253
1584136,-387
1584156,-684
1584178,-1045
1584218,-1193
1584223,-996
1584243,-683
1584351,-639
1584429,-125
1584435,-1077
1584475,-1084
1584494,-839
1584515,-995
1584555,-1172
1584560,-1159
1584580,-923
1584602,-648
1584641,-529
1584646,-559
1584665,-616
1584688,-544
1584727,-334
1584732,-167
1584752,-229
1584790,-514
1584830,-805
1584837,-768
1584859,-653
1584898,-730
1584903,-941
1584923,-1063
1584945,-940
1584985,-602
1584990,-223
1585008,67
1585031,314
1585071,632
1585076,1076
1585094,1561
1585116,1957
1585155,2179
1585161,2360
1585181,2734
1585202,3385
1585243,4175
1585248,4832
1585266,5266
1585288,5624
1585329,6083
1585334,6586
1585353,6911
1585374,6833
1585515,6324
1585560,1196
1585603,-758
1585624,-1824
1585666,-1873
1585671,-2129
1585689,-2368
1585711,-2271
1585753,-1850
1585791,-1442
1585796,-1605
1585839,-1598
1585859,-1009
1585881,-1087
1585923,-1565
1585944,-2222
1585966,-2001
1586008,-1716
1586029,-1815
1586050,-1967
1586093,-1873
1586114,-1171
1586135,-1051
1586178,-1210
1586199,-1539
1586220,-1482
1586263,-1482
1586284,-1748
1586305,-1639
1586348,-1337
1586369,-1110
1586390,-1230
1586433,-1238
1586455,-1003
1586477,-995
1586519,-997
1586540,-979
1586650,-1208
1586732,-911
1586777,-955
1586789,-779
1586811,-998
1586853,-1038
1586892,-687
1586897,-710
1586939,-835
1586960,-617
1586981,-480
1587023,-606
1587045,-839
1587067,-460
1587109,-7
1587129,-206
1587151,-527
1587193,-508
1587198,-223
1587216,-36
1587237,-140
1587279,-376
1587301,-350
1587323,-241
1587365,-239
1587385,-178
1587407,-15
1587449,49
1587454,-16
1587472,-75
1587571,-10
1587614,26
1587658,131
1587663,-269
1587804,-68
1587850,144
1587893,605
1587910,-41
1587952,399
1587975,790
1587996,517
1588038,452
1588059,1124
1588080,1200
1588156,992
1588164,1041
1588206,1083
1588211,928
1588230,718
1588251,671
1588293,793
1588314,893
1588335,626
1588378,273
1588400,283
1588421,567
1588464,634
1588484,124
1588506,183
1588548,533
1588569,549
1588592,142
1588634,-10
1588654,456
1588676,353
1588718,-45
1588739,-358
1588762,-185
1588804,-174
1588824,-792
1588938,-979
1589020,-1329
1589064,-1157
1589075,-1538
1589096,-1776
1589139,-1835
1589159,-1558
1589181,-1511
1589223,-1572
1589244,-1603
1589265,-1556
1589308,-1608
1589346,-1767
1589352,-1976
1589394,-1985
1589415,-2148
1589436,-2064
1589479,-1729
1589499,-1060
1589521,-1106
1589563,-1256
1589586,-1240
1589606,-1267
1589648,-1485
1589653,-1801
1589671,-2046
1589693,-2149
1589735,-2170
1589756,-2042
1589778,-1773
1589820,-1398
1589841,-919
1589862,-973
1589905,-1112
1589925,-1195
1589947,-1114
1590088,-1054
1590134,-584
1590177,-1087
1590198,-1325
1590240,-832
1590261,-947
1590282,-1486
1590324,-1643
1590329,-1303
1590348,-921
1590386,-894
1590428,-1126
1590434,-955
1590454,-673
1590496,-666
1590517,-905
1590538,-628
1590580,-253
1590585,-162
1590603,-473
1590625,-900
1590667,-1067
1590688,-673
1590709,-704
1590751,-1016
1590756,-1294
1590775,-1240
1590796,-841
1590839,-419
1590859,-464
1590881,-676
1590923,-751
1590945,-819
1590966,-956
1591009,-1032
1591029,-942
1591051,-923
1591093,-875
1591115,-517
1591225,-520
1591307,-452
1591351,-449
1591364,-864
1591387,-1315
1591429,-1396
1591450,-893
1591793,-1005
1591956,-775
1592040,-1509
1592085,-468
1592128,-1165
1592133,-861
1592176,-813
1592196,-1012
1592218,-1048
1592358,-1107
1592404,-844
1592447,-705
1592468,-748
1592510,-918
1592531,-843
1592552,-839
1592595,-958
1592617,-889
1592638,-567
1592680,-346
1592701,-766
1592723,-1023
1592765,-1003
1592787,-666
1592808,-803
1592851,-1074
1592871,-1155
1592893,-1018
1592935,-970
1592956,-1004
1592977,-939
1593020,-956
1593025,-1128
1593041,-1304
1593065,-1226
1593107,-860
1593145,-511
1593151,-823
1593193,-1055
1593212,-522
1593233,-318
1593275,-553
1593281,-1068
1593299,-1409
1593321,-1303
1593363,-910
1593383,-778
1593495,-1067
1593577,-562
1593622,-671
1593634,-1083
1593656,-1316
1593698,-1295
1593719,-1088
1593740,-1077
1593782,-1047
1593803,-997
1593825,-1002
1593867,-934
1593872,-827
1593890,-796
1593912,-890
1593954,-959
1593974,-779
1593996,-838
1594038,-1074
1594060,-1153
1594082,-935
1594124,-847
1594145,-1064
1594167,-1038
1594242,-934
1594250,-863
1594292,-775
1594297,-779
1594316,-947
1594337,-1117
1594379,-1076
1594400,-628
1594422,-724
1594464,-1035
1594485,-1132
1594506,-812
1594647,-555
1594693,-944
1594736,-1136
1594757,-807
1594799,-859
1594820,-986
1594841,-662
1594884,-179
1594906,-78
1594927,-578
1594969,-991
1594990,-811
1595012,-732
1595054,-984
1595059,-1349
1595077,-1439
1595097,-1175
1595139,-861
1595144,-780
1595163,-884
1595184,-905
1595226,-749
1595247,-764
1595269,-1052
1595463,-1180
1595548,-454
1595592,-700
1595602,-785
1595644,-1192
1595664,-1309
1595776,-954
1595859,-855
1595903,-174
1595914,-132
1595936,-310
1595978,-429
1595983,-311
1596001,-6
1596023,228
1596065,189
1596086,-202
1596107,-167
1596149,-75
1596171,-231
1596193,-307
1596235,-241
1596256,-321
1596278,-613
1596319,-784
1596342,-405
1596363,-321
1596404,-574
1596426,-1006
1596448,-773
1596488,-552
1596493,-670
1596512,-1064
1596533,-1345
1596574,-1265
1596579,-1046
1596599,-1057
1596637,-1338
1596677,-1549
1596683,-1056
1596704,-913
1596744,-1112
1596749,-1340
1596769,-1277
1596791,-1039
1596929,-954
1596972,-1086
1597013,-1379
1597020,-400
1597042,-378
1597082,-719
1597087,-1033
1597107,-1055
1597128,-878
1597168,-703
1597173,-554
1597193,-373
1597215,-245
1597254,-394
1597259,-789
1597278,-1059
1597299,-897
1597339,-477
1597344,-330
1597364,-690
1597385,-1171
1597425,-1203
1597430,-698
1597450,-103
1597472,179
1597511,270
1597516,606
1597554,1326
1597559,2112
1597600,2643
1597605,2971
1597623,3436
1597643,4207
1597684,5074
1597689,5711
1597709,6057
1597731,6293
1597773,6523
1597793,6366
1597815,5828
1597858,5241
1597878,4111
1597900,3122
1597942,1832
1597963,23
1598073,-229
1598155,-2533
1598199,-1857
1598213,-1201
1598235,-1284
1598277,-1532
1598298,-1431
1598399,-1307
1598444,-2535
1598488,-1933
1598532,-1928
1598549,-1773
1598571,-1705
1598614,-1730
1598635,-2140
1598657,-2276
1598700,-2149
1598720,-1601
1598759,-1583
1598802,-1610
1598808,-1054
1598826,-846
1598869,-974
1598890,-1318
1598911,-1207
1598955,-1151
1598975,-1493
1598997,-1494
1599040,-1325
1599061,-1312
1599082,-1421
1599224,-1328
1599271,-1084
1599315,-623
1599331,-873
1599374,-1184
1599395,-730
1599416,-341
1599459,-363
1599480,-787
1599501,-525
1599544,-240
1599565,-863
1599586,-1109
1599629,-749
1599651,91
1599673,-254
1599715,-639
1599736,-56
1599757,251
1599799,104
1599820,-271
1599841,-115
1599884,-90
1599921,-329
1599927,-407
1599969,10
1599991,161
1600013,-138
1600055,-265
1600076,180
1600097,402
1600140,523
1600160,571
1600182,428
1600224,226
1600247,422
1600358,759
1600441,446
1600486,1268
1600496,928
1600517,833
1600560,771
1600581,698
1600602,582
1600645,445
1600666,546
1600687,795
1600730,995
1600750,1002
1600772,854
1600815,643
1600835,411
1600857,487
1600900,542
1600920,179
1600943,54
1600986,192
1601006,618
1601028,470
1601071,156
1601091,-222
1601113,-252
1601188,-278
1601196,-625
1601239,-772
1601260,-954
1601283,-971
1601325,-997
1601346,-1345
1601367,-1589
1601508,-1683
1601555,-1476
1601599,-1578
1601616,-1846
1601659,-1670
1601680,-1759
1601702,-1971
1601745,-1989
1601766,-1688
1601788,-1756
1601831,-1873
1601851,-1724
1601871,-1672
1601915,-1752
1601935,-1691
1601957,-1521
1602000,-1517
1602021,-1840
1602042,-1771
1602086,-1605
1602106,-1737
1602128,-1898
1602171,-1842
1602190,-1356
1602212,-1374
1602255,-1570
1602294,-1562
1602299,-1349
1602342,-1333
1602361,-1849
1602383,-1860
1602426,-1605
1602446,-1336
1602468,-1446
1602511,-1460
1602532,-1261
1602644,-1287
1602727,-1321
1602772,-705
1602781,-1258
1602803,-1331
1602846,-1074
1602867,-670
1602888,-802
1602931,-979
1602952,-905
1602973,-692
1603016,-544
1603036,-843
1603058,-1121
1603101,-1250
1603122,-927
1603143,-797
1603186,-870
1603206,-1157
1603228,-944
1603271,-521
1603291,-349
1603313,-754
1603356,-1073
1603377,-869
1603415,-786
1603458,-899
1603464,-1085
1603484,-1092
1603526,-1136
1603547,-1061
1603569,-922
1603612,-951
1603632,-1444
1603652,-1407
1603794,-1158
1603840,-745
1603884,-1251
1603904,-901
1603946,-819
1603967,-1095
1603989,-910
1604031,-580
1604052,-933
1604074,-1399
1604116,-1414
1604137,-688
1604159,-967
1604202,-1594
1604222,-1447
1604244,-736
1604287,-465
1604307,-1359
1604329,-1364
1604372,-846
1604393,-418
1604414,-914
1604457,-1353
1604476,-1083
1604498,-830
1604540,-813
1604579,-1141
1604584,-1166
1604627,-997
1604646,-449
1604668,-499
1604711,-865
1604731,-1285
1604753,-949
1604796,-609
1604816,-825
1604928,-951
1605011,-966
1605056,-1009
1605067,-1116
1605089,-707
1605131,-419
1605152,-823
1605174,-934
1605216,-696
1605237,-316
1605259,-553
1605301,-785
1605322,-585
1605343,-480
1605386,-561
1605407,-814
1605428,-849
1605471,-852
1605492,-745
1605513,-639
1605556,-542
1605577,-412
1605598,-392
1605641,-425
1605663,-499
1605683,-556
1605759,-739
1605769,-668
1605811,-266
1605832,-520
1605853,-760
1605896,-560
1605917,-65
1605938,-473
1606079,-886
1606125,-701
1606169,-222
1606188,-907
1606231,-744
1606252,-456
1606273,-573
1606316,-643
1606336,-421
1606358,-325
1606400,-248
1606421,-128
1606443,-252
1606485,-486
1606506,-631
1606529,-520
1606572,-478
1606592,-648
1606614,-654
1606656,-571
1606677,-529
1606699,-563
1606741,-550
1606762,-521
1606783,-590
1606826,-629
1606846,-485
1606868,-461
1606911,-506
1606949,-412
1606954,-292
1606997,-327
1607016,-681
1607039,-662
1607082,-535
1607103,-681
1607214,-838
1607297,-402
1607342,-380
1607351,-554
1607373,-678
1607415,-658
1607420,-522
1607439,-395
1607460,-384
1607503,-462
1607523,-529
1607545,-520
1607588,-555
1607608,-579
1607630,-451
1607672,-294
1607693,-130
1607714,-52
1607757,24
1607779,-165
1607800,-378
1607843,-479
1607864,-468
1607885,-657
1607928,-956
1607948,-979
1607970,-661
1608013,-452
1608033,-604
1608071,-551
1608114,-285
1608120,28
1608140,-91
1608182,-230
1608203,-427
1608224,-599
1608365,-766
1608411,-309
1608456,-373
1608475,-458
1608517,-427
1608538,-677
1608560,-772
1608602,-721
1608623,-452
1608645,-332
1608687,-218
1608708,-314
1608730,-549
1608772,-716
1608777,-665
1608795,-466
1608817,-332
1608858,-375
1608863,-476
1608881,-442
1608903,-259
1608943,-129
1608948,-210
1608966,-407
1608988,-531
1609028,-494
1609033,-451
1609053,-590
1609074,-850
1609114,-896
1609152,-535
1609237,424
1609279,55
1609320,-87
1609326,-540
1609366,-717
1609371,-920
1609391,-1084
1609501,-1039
1609579,-304
1609622,63
1609641,-179
1609662,-467
1609702,-850
1609707,-1135
1609727,-1162
1609749,-1050
1609789,-1103
1609794,-1475
1609813,-1931
1609834,-2043
1609874,-1701
1609880,-1260
1609900,-1118
1609921,-1333
1609962,-1563
1609967,-1447
1609985,-1048
1610007,-747
1610047,-843
1610052,-1230
1610072,-1504
1610093,-1426
1610134,-1144
1610139,-971
1610157,-1070
1610195,-1276
1610236,-1334
1610243,-1069
1610263,-1091
1610303,-1242
1610309,-1366
1610329,-1390
1610350,-1346
1610391,-1322
1610396,-1333
1610414,-1365
1610436,-1402
1610476,-1396
1610481,-1305
1610500,-1144
1610521,-1040
1610660,-1111
1610704,-426
1610745,108
1610753,1576
1610773,2040
1610813,2299
1610818,2668
1610838,3328
1610860,4096
1610901,4666
1610906,4993
1610923,5281
1610945,5692
1610987,6095
1610992,6202
1611010,5910
1611032,5387
1611075,4849
1611095,3487
1611133,2322
1611176,996
1611182,-760
1611202,-1152
1611244,-1617
1611265,-2887
1611287,-3160
1611329,-3012
1611350,-2500
1611372,-2425
1611415,-2359
1611436,-2110
1611457,-2152
1611501,-2267
1611520,-2007
1611542,-1865
1611586,-2172
1611605,-3396
1611626,-3229
1611670,-2489
1611689,-1986
1611798,-2545
1611883,-1680
1611929,-2243
1611940,-2102
1611962,-2101
1612005,-2184
1612026,-2065
1612047,-1725
1612091,-1504
1612110,-1876
1612131,-1825
1612174,-1394
1612195,-1157
1612217,-1670
1612597,-1960
1612764,-1443
1612947,-1115
1613033,-678
1613078,-878
1613121,-1110
1613127,-959
1613170,-600
1613190,-497
1613212,-704
1613255,-760
1613275,-581
1613297,-688
1613339,-878
1613360,-758
1613381,-577
1613424,-560
1613445,-670
1613466,-450
1613509,-100
1613529,19
1613551,-318
1613594,-600
1613614,-331
1613636,-115
1613678,-192
1613701,-691
1613722,-504
1613765,-22
1613785,366
1613807,122
1613850,39
1613870,804
1613892,975
1613935,724
1613955,211
1613977,297
1614151,234
1614236,-1015
1614281,-629
1614289,-953
1614309,-965
1614352,-1162
1614372,-1856
1614394,-1907
1614437,-1831
1614458,-1947
1614479,-1915
1614522,-1648
1614543,-1463
1614565,-1900
1614608,-2348
1614628,-2198
1614650,-2015
1614693,-2207
1614712,-2903
1614734,-2732
1614777,-2305
1614798,-2054
1614820,-2279
1614863,-2395
1614884,-2281
1614906,-2434
1614949,-2715
1614968,-2570
1614990,-2243
1615033,-2221
1615054,-2871
1615075,-2754
1615119,-2289
1615138,-2259
1615176,-2856
1615317,-3223
1615365,-2267
1615408,-2264
1615414,-2136
1615457,-1948
1615473,-2172
1615495,-2429
1615538,-2456
1615558,-2064
1615580,-2056
1615623,-2160
1615644,-2047
1615666,-1843
1615709,-1693
1615729,-1644
1615751,-1599
1615794,-1475
1615813,-1342
1615835,-1591
1615878,-1943
1615898,-2013
1615920,-1816
1615963,-1826
1615984,-2175
1616005,-1982
1616048,-1634
1616069,-1601
1616091,-1776
1616134,-1812
1616154,-1759
1616176,-1778
1616219,-1677
1616238,-1428
1616276,-1530
1616319,-1566
1616325,-1131
1616345,-1086
1616486,-1264
1616533,-1800
1616577,-1160
1616596,-1024
1616639,-909
1616659,-912
1616681,-968
1616724,-1059
1616744,-1674
1616766,-1894
1616809,-1749
1616830,-1209
1616851,-1424
1616894,-1758
1616913,-1497
1616935,-1222
1616978,-1269
1616998,-1589
1617020,-1370
1617063,-1113
1617084,-1335
1617105,-1448
1617148,-1293
1617169,-1027
1617190,-1295
1617233,-1602
1617254,-1407
1617276,-1201
1617319,-1287
1617339,-1591
1617361,-1273
1617437,-863
1617445,-1238
1617488,-1181
1617508,-1015
1617618,-1312
1617701,-985
1617745,-894
1617758,-1338
1617780,-1606
1617822,-1557
1617843,-1118
1617865,-1140
1617907,-1247
1617928,-1153
1617950,-1026
1617992,-962
1618013,-1064
1618035,-1201
1618077,-1308
1618098,-1152
1618120,-1110
1618162,-1270
1618183,-1387
1618205,-1050
1618247,-798
1618268,-1164
1618290,-1197
1618332,-944
1618353,-1047
1618375,-1398
1618417,-1380
1618438,-857
1618459,-1120
1618502,-1458
1618541,-745
1618546,-353
1618589,-543
1618608,-1352
1618629,-1232
1618770,-1082
1618817,-932
1618861,-1196
1618880,-578
1618922,-893
1618943,-1825
1618965,-1622
1619007,-1172
1619028,-1130
1619049,-1425
1619092,-1498
1619114,-987
1619134,-797
1619176,-797
1619181,-937
1619200,-1095
1619221,-1152
1619264,-1054
1619284,-687
1619306,-668
1619349,-780
1619369,-1013
1619391,-1042
1619433,-1046
1619454,-1031
1619476,-1071
1619518,-1155
1619539,-1123
1619561,-955
1619603,-826
1619642,-1011
1619647,-1193
1619690,-1300
1619709,-1290
1619731,-1299
1619773,-1384
1619794,-1650
1619906,-1595
1619989,-847
1620059,-557
1620104,-1055
1620148,-1352
1620192,-869
1620211,-1040
1620233,-1144
1620275,-1052
1620297,-958
1620319,-1131
1620362,-1240
1620382,-1015
1620402,-925
1620445,-877
1620450,-791
1620468,-683
1620490,-657
1620532,-746
1620553,-779
1620575,-689
1620617,-783
1620638,-1393
1620659,-1361
1620702,-1021
1620723,-850
1620744,-1180
1620787,-1315
1620825,-672
1620831,-550
1620873,-713
1620892,-676
1620914,-427
1621055,-440
1621101,-544
1621145,-610
1621164,-434
1621207,-598
1621228,-856
1621249,-901
1621292,-925
1621313,-1124
1621334,-1357
1621377,-1493
1621398,-1120
1621419,-974
1621462,-1003
1621482,-862
1621504,-626
1621546,-549
1621551,-645
1621570,-701
1621591,-626
1621633,-549
1621654,-827
1621675,-848
1621717,-647
1621723,-416
1621741,-359
1621762,-452
1621805,-552
1621825,-583
1621847,-542
1621889,-456
1621911,-309
1621949,-319
1621990,-279
1621996,-62
1622017,-147
1622057,-331
1622062,-380
1622082,-250
1622192,-152
1622269,-232
1622311,-660
1622332,-497
1622353,-748
1622393,-978
1622398,-937
1622418,-695
1622440,-556
1622479,-665
1622485,-853
1622503,-879
1622524,-755
1622564,-721
1622569,-880
1622589,-1044
1622611,-1027
1622651,-891
1622656,-857
1622676,-997
1622697,-1119
1622737,-1001
1622742,-695
1622761,-478
1622784,-565
1622824,-924
1622829,-1309
1622847,-1496
1622869,-1419
1622942,-1218
1622954,-1538
1622993,-1722
1622999,-1644
1623017,-1341
1623039,-1030
1623078,-894
1623083,-970
1623103,-1119
1623125,-1151
1623165,-999
1623170,-778
1623190,-680
1623212,-781
1623350,-927
1623393,-679
1623434,-162
1623441,-186
1623463,-99
1623503,313
1623508,858
1623528,1260
1623549,1471
1623589,1754
1623595,2331
1623613,3150
1623635,3988
1623675,4736
1623681,5426
1623699,6089
1623721,6581
1623763,6683
1623783,6112
1623805,5916
1623847,5727
1623853,5183
1623891,4151
1623934,2001
1623955,1037
1623976,325
1624019,-687
1624039,-2325
1624061,-2571
1624103,-2579
1624124,-2512
1624146,-2525
1624188,-2505
1624209,-1948
1624230,-1396
1624272,-981
1624277,-989
1624296,-1363
1624317,-1741
1624359,-1798
1624380,-1565
1624491,-1781
1624573,-1464
1624617,-1214
1624630,-1442
1624652,-1273
1624694,-1126
1624699,-1243
1624716,-1478
1624737,-1487
1624780,-1230
1624785,-1103
1624802,-1373
1624823,-1724
1624866,-1592
1624871,-941
1624889,-433
1624927,-660
1624969,-1427
1624975,-1608
1624995,-909
1625037,-565
1625058,-1271
1625080,-1264
1625121,-822
1625127,-448
1625145,-508
1625167,-848
1625208,-1093
1625229,-1145
1625251,-1307
1625293,-1450
1625298,-1370
1625316,-1102
1625338,-887
1625380,-863
1625400,-762
1625422,-554
1625464,-451
1625469,-515
1625487,-609
1625509,-638
1625649,-641
1625695,-337
1625738,84
1625759,-403
1625801,-290
1625822,583
1625843,396
1625886,-204
1625907,-414
1625928,7
1625970,143
1626009,-316
1626014,-166
1626057,297
1626078,920
1626099,982
1626142,987
1626163,777
1626184,544
1626227,352
1626248,300
1626268,401
1626311,537
1626331,671
1626353,669
1626396,763
1626417,1146
1626438,1118
1626481,865
1626502,506
1626523,628
1626566,813
1626587,930
1626609,957
1626651,1021
1626672,1063
1626784,1022
1626868,866
1626913,1096
1626922,864
1626944,716
1626987,686
1627007,670
1627029,533
1627072,330
1627092,-78
1627114,-293
1627157,-517
1627177,-837
1627199,-828
1627274,-741
1627283,-782
1627325,-837
1627346,-764
1627367,-787
1627410,-935
1627431,-1395
1627452,-1645
1627495,-1801
1627517,-1648
1627537,-1627
1627580,-1794
1627585,-1964
1627602,-1867
1627624,-1498
1627666,-1200
1627688,-1607
1627708,-1786
1627751,-1638
1627773,-1527
1627793,-1891
1627934,-2145
1627980,-1916
1628024,-1539
1628045,-1473
1628087,-1213
1628108,-1301
1628130,-1480
1628172,-1406
1628193,-1115
1628215,-1416
1628257,-1791
1628278,-1517
1628299,-1165
1628375,-1124
1628383,-1247
1628426,-953
1628446,-870
1628468,-995
1628510,-1066
1628533,-1127
1628553,-1126
1628595,-1033
1628600,-941
1628619,-980
1628640,-1129
1628683,-1207
1628703,-961
1628725,-954
1628767,-1087
1628788,-1117
1628810,-1041
1628852,-1074
1628873,-979
1628895,-683
1628937,-532
1628958,-978
1629069,-993
1629152,-613
1629197,-411
1629208,-156
1629229,-533
1629272,-1124
1629294,-862
1629315,-252
1629358,-184
1629379,-1167
1629400,-987
1629443,-420
1629463,-303
1629501,-656
1629544,-714
1629550,-385
1629570,-524
1629612,-719
1629633,-678
1629654,-638
1629697,-665
1629719,-495
1629741,-382
1629783,-422
1629804,-669
1629826,-631
1629868,-491
1629889,-331
1629910,-446
1629953,-631
1629974,-510
1629995,-151
1630038,72
1630058,-354
1630080,-507
1630221,-373
1630267,-544
1630311,-926
1630330,-276
1630373,-247
1630393,-816
1630415,-754
1630457,-535
1630478,-587
1630501,-664
1630544,-526
1630564,-278
1630586,-496
1630628,-689
1630649,-288
1630687,-105
1630730,-265
1630735,-755
1630755,-533
1630798,-192
1630819,-295
1630919,-468
1630964,-237
1631007,-391
1631052,100
1631070,-530
1631092,-256
1631135,-5
1631155,-597
1631177,-837
1631219,-694
1631240,-455
1631352,-696
1631435,-472
1631479,-291
1631490,-159
1631512,-40
1631554,18
1631575,-157
1631596,-151
1631639,-44
1631659,-155
1631682,-329
1631725,-326
1631746,-16
1631767,-118
1631810,-333
1631830,-167
1631852,67
1631894,75
1631915,-331
1631936,-358
1632012,-269
1632020,-243
1632063,-336
1632085,-705
1632106,-708
1632149,-484
1632170,-83
1632191,-201
1632234,-324
1632254,32
1632276,209
1632318,103
1632339,-335
1632360,-251
1632502,-100
1632548,-255
1632592,-641
1632611,188
1632653,184
1632674,-312
1632695,-111
1632738,176
1632760,-181
1632782,-438
1632824,-407
1632845,-377
1632866,-604
1632909,-639
1632929,-168
1632951,-287
1632993,-586
1633014,-308
1633037,103
1633079,170
1633100,-281
1633122,-186
1633164,48
1633736,23
1634021,-95
1634148,309
1634232,-228
1634277,-233
1634320,152
1634339,310
1634361,69
1634403,-109
1634424,-84
1634445,-162
1634487,-293
1634492,-307
1634511,-188
1634532,-121
1634575,-219
1634595,-298
1634617,-81
1634659,56
1634680,-318
1634701,-373
1634743,-181
1634748,8
1634855,-82
1634899,-337
1634939,-211
1634954,-387
1634993,-421
1634999,-290
1635018,-20
1635040,196
1635080,151
1635085,-115
1635105,-328
1635126,-237
1635166,105
1635172,406
1635190,425
1635211,199
1635284,-7
1635296,550
1635336,617
1635341,463
1635361,213
1635383,9
1635423,-107
1635428,-167
1635446,-160
1635468,-76
1635508,27
1635513,20
1635533,-145
1635554,-249
1635594,-23
1635599,499
1635619,926
1635641,908
1635681,545
1635686,293
1635704,395
1635726,618
1635766,535
1635771,117
1635791,-245
1635813,-250
1635853,-66
1635858,-25
1635876,-180
1635898,-275
1636036,-169
1636079,255
1636120,-9
1636128,24
1636149,223
1636189,126
1636194,-230
1636214,-474
1636236,-400
1636309,-229
1636319,-917
1636359,-792
1636364,-430
1636384,-243
1636405,-410
1636445,-705
1636450,-741
1636470,-469
1636492,-223
1636532,-319
1636537,-677
1636557,-942
1636578,-893
1636618,-640
1636623,-477
1636642,-556
1636663,-754
1636703,-846
1636708,-744
1636728,-551
1636750,-398
1636789,-330
1636795,-318
1636814,-323
1636836,-354
1636876,-385
1636881,-342
1636901,-218
1636922,-69
1636962,-42
1636967,-199
1636985,-394
1637007,-364
1637047,-6
1637052,529
1637188,952
1637266,3666
1637309,6087
1637322,6708
1637344,6919
1637386,7138
1637406,6832
1637428,6167
1637470,5352
1637491,3508
1637513,2480
1637555,1515
1637560,707
1637578,9
1637599,-681
1637641,-1269
1637662,-1674
1637683,-1659
1637725,-1715
1637731,-1763
1637749,-1636
1637771,-1373
1637813,-1246
1637834,-1614
1637855,-1595
1637898,-1298
1637918,-1132
1637940,-1381
1637982,-1486
1638003,-1161
1638025,-1212
1638067,-1433
1638089,-1458
1638111,-1263
1638153,-1202
1638174,-1324
1638212,-1190
1638352,-1005
1638399,-775
1638441,-795
1638447,-392
1638489,-405
1638508,-553
1638531,-520
1638573,-516
1638594,-601
1638615,-518
1638657,-395
1638680,-477
1638701,-579
1638743,-593
1638764,-532
1638785,-583
1638828,-659
1638848,-910
1638871,-1047
1638914,-1006
1638934,-373
1638956,-300
1638998,-489
1639019,-410
1639040,10
1639082,254
1639087,149
1639105,-105
1639127,-216
1639169,-166
1639190,-218
1639211,-215
1639253,-42
1639258,140
1639276,144
1639298,55
1639373,140
1639381,500
1639522,170
1639568,298
1639611,814
1639632,948
1639674,909
1639695,827
1639716,667
1639759,457
1639764,360
1639782,484
1639804,685
1639846,696
1639866,432
1639888,738
1639930,1170
1639951,792
1639972,377
1640015,494
1640020,1051
1640038,1468
1640060,1412
1640102,1108
1640123,1032
1640144,1141
1640187,1184
1640207,1238
1640229,1073
1640272,788
1640292,1153
1640314,1686
1640356,1788
1640377,876
1640398,903
1640441,1317
1640463,1275
1640485,864
1640659,723
1640743,119
1640787,-143
1640795,-300
1640818,-247
1640860,-276
1640881,-634
1640902,-644
1640944,-624
1640967,-1335
1640987,-1674
1641029,-1550
1641034,-1188
1641052,-1092
1641074,-1418
1641116,-1751
1641137,-1308
1641159,-1198
1641201,-1577
1641222,-2143
1641243,-1836
1641286,-1580
1641307,-1804
1641328,-1790
1641371,-1572
1641392,-1355
1641413,-1320
1641456,-1161
1641477,-1195
1641498,-1513
1641541,-1673
1641562,-1335
1641583,-1362
1641626,-1566
1641648,-1392
1641845,-1192
1641968,-1547
1642015,-1646
1642058,-1053
1642064,-1535
1642084,-1235
1642127,-699
1642147,-716
1642169,-1085
1642211,-1116
1642232,-495
1642253,-576
1642296,-896
1642317,-972
1642338,-719
1642381,-592
1642403,-783
1642424,-836
1642467,-796
1642488,-705
1642509,-689
1642552,-679
1642572,-578
1642594,-507
1642636,-479
1642657,-567
1642678,-571
1642721,-564
1642726,-642
1642744,-826
1642764,-982
1642807,-969
1642812,-804
1642830,-670
1642852,-712
1642992,-837
1643071,-427
1643116,-501
1643159,-509
1643165,-508
1643185,-607
1643227,-627
1643232,-487
1643250,-319
1643272,-342
1643314,-620
1643335,-985
1643356,-800
1643399,-628
1643419,-952
1643441,-1056
1643484,-829
1643506,-284
1643526,-469
1643568,-784
1643573,-910
1643591,-796
1643613,-683
1643655,-752
1643676,-928
1643698,-772
1643740,-654
1643761,-791
1643782,-606
1643825,-207
1643845,-114
1643868,-388
1643911,-369
1643931,162
1643953,-57
1643995,-489
1644016,-509
1644127,-334
1644243,-570
1644288,-356
1644332,-501
1644349,-87
1644371,-574
1644413,-966
1644434,-339
1644455,-140
1644498,-425
1644520,-711
1644541,-300
1644584,-47
1644604,-546
1644626,-510
1644668,-129
1644689,-147
1644710,-643
1644753,-826
1644775,-3
1644796,145
1644839,-65
1644859,-73
1644881,246
1644923,332
1644944,-335
1644965,-488
1645008,-424
1645013,-399
1645031,-589
1645052,-878
1645095,-965
1645116,-419
1645137,-275
1645278,-382
1645324,-508
1645368,-482
1645387,-341
1645462,-355
1645471,-284
1645513,-432
1645535,-564
1645557,-464
1645599,-466
1645620,-863
1645641,-847
1645684,-623
1645704,-475
1645726,-566
1645768,-453
1645790,116
1645812,52
1645854,-138
1645875,75
1645896,177
1645939,-62
1645959,-600
1645981,-475
1646023,-399
1646028,-591
1646046,-844
1646068,-794
1646110,-390
1646131,-50
1646153,-290
1646195,-293
1646216,428
1646237,300
1646279,-290
1646302,-802
1646412,-389
1646495,-406
1646539,66
1646552,-145
1646573,-322
1646648,-460
1646656,-54
1646699,-133
1646721,-586
1646742,-404
1646785,40
1646805,228
1646827,-208
1646869,-521
1646890,-264
1646911,-252
1646954,-517
1646975,-640
1646996,-273
1647039,-37
1647043,-147
1647062,-383
1647083,-339
1647126,104
1647146,588
1647168,65
1647210,-575
1647232,-562
1647254,-213
1647296,-227
1647317,-933
1647338,-791
1647380,-254
1647401,401
1647422,303
1647563,271
1647609,56
1647653,-190
1647673,-373
1647716,-162
1647736,126
1647758,171
1647800,234
1647839,166
1647844,-8
1647886,-116
1647906,-119
1647928,-193
1647970,-332
1647992,-362
1648014,-228
1648056,-50
1648077,240
1648098,184
1648141,12
1648161,-123
1648183,-135
1648225,-348
1648230,-699
1648248,-834
1648270,-552
1648312,-107
1648333,-107
1648354,-203
1648396,144
1648401,734
1648419,997
1648441,688
1648481,168
1648486,-81
1648505,30
1648526,178
1648566,133
1648571,-20
1648591,-73
1648703,-13
1648780,29
1648822,44
1648841,471
1648863,503
1648903,396
1648908,300
1648946,320
1648951,340
1648991,161
1649012,-503
1649033,-384
1649073,87
1649078,491
1649098,498
1649120,277
1649160,317
1649165,791
1649185,1315
1649206,1340
1649246,794
1649252,184
1649270,34
1649291,317
1649331,566
1649337,439
1649357,68
1649378,-173
1649418,-110
1649423,76
1649443,116
1649464,-39
1649504,-259
1649509,-410
1649529,-498
1649551,-562
1649591,-562
1649596,-424
1649614,-198
1649636,-97
1649675,-215
1649680,-397
1649700,-414
1649722,-254
1649860,-121
1649936,-459
1649978,-137
1650018,-219
1650034,-565
1650056,-499
1650095,-388
1650101,-423
1650121,-654
1650142,-913
1650182,-956
1650187,-725
1650207,-414
1650229,-272
1650268,-358
1650273,-485
1650293,-422
1650315,-122
1650355,267
1650360,579
1650378,735
1650400,745
1650440,761
1650445,961
1650465,1444
1650486,2111
1650526,2705
1650532,3027
1650552,3189
1650572,3514
1650612,4227
1650617,5156
1650637,5913
1650659,6254
1650700,6280
1650706,6322
1650722,6581
1650744,6892
1650819,6881
1650829,4230
1650871,3428
1650892,2199
1651000,1306
1651082,-1114
1651126,-1820
1651142,-1165
1651164,-788
1651206,-693
1651227,-1144
1651248,-1224
1651291,-1078
1651296,-856
1651314,-749
1651336,-845
1651378,-1031
1651399,-1087
1651420,-932
1651463,-823
1651484,-808
1651505,-830
1651547,-915
1651568,-1258
1651590,-1195
1651632,-942
1651654,-783
1651674,-903
1651717,-802
1651722,-479
1651740,-287
1651761,-480
1651803,-831
1651824,-662
1651846,-463
1651887,-605
1651925,-866
1651931,-375
1651973,4
1651995,-420
1652017,-595
1652157,-401
1652203,-396
1652246,-441
1652267,-196
1652309,-121
1652329,-286
1652351,-207
1652393,-111
1652398,-217
1652416,-491
1652438,-581
1652480,-278
1652500,381
1652601,153
1652645,933
1652688,489
1652732,819
1652753,596
1652774,388
1652816,412
1652837,495
1652859,329
1652901,248
1652922,535
1652943,555
1652985,444
1652990,427
1653009,618
1653030,904
1653072,1055
1653093,948
1653115,970
1653157,1037
1653610,805
1653814,1436
1653938,1127
1653983,369
1654027,524
1654070,500
1654086,-371
1654107,-236
1654149,32
1654154,21
1654173,-285
1654194,-588
1654236,-669
1654257,-724
1654279,-997
1654321,-1207
1654326,-1133
1654344,-866
1654366,-728
1654408,-926
1654428,-1429
1654450,-1179
1654492,-803
1654515,-1021
1654534,-1426
1654577,-1615
1654582,-1558
1654600,-1444
1654622,-1410
1654763,-1432
1654809,-1391
1654852,-1591
1654871,-1668
1654914,-1907
1654934,-1846
1654956,-1440
1655031,-1129
1655040,-1543
1655082,-1519
1655087,-1332
1655104,-1166
1655127,-1163
1655170,-1324
1655190,-1603
1655212,-1522
1655254,-1373
1655275,-1242
1655297,-1263
1655339,-1278
1655360,-1241
1655381,-1160
1655424,-1054
1655444,-961
1655466,-996
1655508,-973
1655513,-902
1655531,-915
1655553,-1069
1655595,-1197
1655616,-727
1655638,-496
1655680,-661
1655700,-1285
1655722,-1000
1655764,-518
1655769,-391
1655788,-825
1655900,-1466
1655982,-937
1656026,-1000
1656037,-716
1656075,-555
1656117,-620
1656123,-1183
1656145,-1248
1656187,-1129
1656207,-1030
1656229,-1074
1656271,-1042
1656292,-987
1656314,-1087
1656356,-1107
1656361,-924
1656379,-629
1656401,-483
1656443,-605
1656464,-866
1656485,-643
1656527,-384
1656548,-612
1656569,-888
1656611,-971
1656616,-888
1656635,-835
1656656,-910
1656699,-1017
1656719,-994
1656741,-971
1656783,-1050
1656805,-1171
1656827,-1090
1656869,-981
1656890,-923
1656911,-1016
1657052,-1155
1657098,-1424
1657174,-770
1657218,-984
1657224,-651
1657245,-713
1657288,-829
1657308,-665
1657330,-656
1657372,-846
1657377,-1005
1657395,-899
1657417,-638
1657459,-548
1657480,-1075
1657501,-1181
1657544,-1029
1657564,-725
1657586,-846
1657628,-1038
1657633,-1149
1657652,-1132
1657673,-1036
1657716,-974
1657736,-1052
1657757,-1047
1657799,-996
1657804,-1032
1657823,-1247
1657844,-1485
1657887,-1503
1657907,-949
1657929,-860
1657971,-1009
1657992,-1052
1658014,-780
1658056,-540
1658076,-640
1658213,-858
1658296,-881
1658340,-810
1658348,-985
1658390,-1153
1658411,-855
1658433,-715
1658475,-874
1658496,-1103
1658517,-635
1658560,-126
1658582,-716
1658604,-1383
1658646,-1558
1658667,-944
1658688,-1134
1658731,-1674
1658752,-1737
1658773,-1266
1658816,-1110
1658837,-1776
1658858,-1707
1658901,-1238
1658922,-947
1658943,-1412
1658986,-1782
1659007,-1310
1659028,-990
1659071,-1028
1659092,-1407
1659113,-1221
1659156,-890
1659177,-757
1659198,-759
1659241,-574
1659378,-690
1659461,-743
1659506,-361
1659512,-800
1659532,-1439
1659575,-1526
1659595,-1061
1659617,-1383
1659660,-1769
1659680,-1295
1659702,-1045
1659745,-1244
1659765,-1459
1659787,-966
1659830,-672
1659850,-1532
1659872,-1674
1659915,-1249
1659935,-1070
1659957,-1720
1660000,-2068
1660021,-1090
1660042,-839
1660085,-1128
1660106,-1468
1660127,-1099
1660170,-783
1660191,-1018
1660213,-1176
1660255,-1199
1660276,-1276
1660298,-1339
1660340,-1284
1660361,-1120
1660383,-1233
1660557,-1348
1660642,-1766
1660687,-1184
1660695,-1073
1660716,-1031
1660759,-860
1660779,-903
1660801,-1121
1660844,-1178
1660864,-941
1660886,-1055
1660928,-1246
1660949,-1157
1660971,-1020
1661013,-1032
1661034,-1226
1661056,-1289
1661098,-1338
1661119,-1145
1661141,-975
1661183,-972
1661204,-1302
1661225,-1195
1661268,-966
1661289,-1195
1661310,-1570
1661353,-1738
1661375,-1423
1661397,-1313
1661439,-1294
1661460,-1200
1661482,-1179
1661524,-1180
1661545,-962
1661583,-886
1661724,-1027
1661771,-1483
1661813,-1416
1661819,-1451
1661860,-1529
1661879,-870
1661902,-630
1661942,-777
1661947,-1022
1661966,-943
1661987,-541
1662028,-281
1662033,-522
1662051,-1068
1662073,-1362
1662113,-1184
1662118,-862
1662138,-818
1662159,-1033
1662199,-1146
1662205,-987
1662225,-754
1662246,-713
1662286,-828
1662291,-843
1662309,-664
1662331,-470
1662371,-476
1662376,-656
1662396,-811
1662418,-813
1662457,-711
1662462,-650
1662482,-719
1662504,-860
1662577,-948
1662588,-351
1662628,-315
1662633,-469
1662651,-563
1662673,-410
1662713,-160
1662718,-188
1662738,-656
1662759,-1242
1662898,-1457
1662941,-1306
1662982,-616
1662990,-906
1663011,-1163
1663051,-1277
1663056,-1272
1663075,-1270
1663096,-1337
1663137,-1398
1663142,-1338
1663162,-1211
1663183,-1195
1663223,-1428
1663229,-1738
1663247,-1743
1663269,-1290
1663309,-777
1663314,-788
1663334,-1411
1663433,-2018
1663476,-1400
1663517,-1848
1663523,-1390
1663563,-1601
1663601,-1687
1663607,-714
1663648,-728
1663653,-1432
1663671,-2013
1663693,-1725
1663733,-804
1663738,-180
1663757,-385
1663778,-983
1663819,-1190
1663824,-763
1663844,-136
1663865,214
1663906,256
1663911,296
1663929,582
1664038,1109
1664116,3861
1664159,5878
1664180,6039
1664202,5885
1664244,5574
1664264,4449
1664286,3581
1664328,2511
1664333,1344
1664350,235
1664371,-683
1664413,-1422
1664418,-2028
1664437,-2483
1664458,-2720
1664501,-2722
1664521,-2368
1664543,-2224
1664619,-2136
1664627,-1848
1664671,-1744
1664691,-1597
1664713,-1636
1664756,-1745
1664775,-1868
1664797,-1841
1664841,-1891
1664861,-2299
1664883,-2321
1664926,-2141
1664945,-2030
1664967,-2214
1665010,-2228
1665031,-1732
1665053,-1882
1665194,-2360
1665240,-2326
1665284,-1045
1665302,-1616
1665344,-2135
1665367,-1496
1665388,-1121
1665431,-1268
1665452,-1808
1665473,-1513
1665516,-1013
1665536,-597
1665558,-742
1665600,-932
1665621,-864
1665642,-662
1665685,-639
1665707,-1181
1665745,-1222
1665787,-1036
1665793,-1226
1665813,-1579
1665855,-1587
1665876,-817
1665898,-804
1665940,-1067
1665961,-863
1665982,-341
1666024,-39
1666029,-163
1666048,-530
1666069,-780
1666111,-726
1666132,-433
1666153,-684
1666196,-1017
1666201,-1021
1666218,-613
1666329,-166
1666412,450
1666456,-258
1666469,273
1666490,363
1666532,142
1666553,-191
1666574,73
1666617,476
1666622,749
1666640,742
1666662,564
1666704,505
1666725,1230
1666747,1465
1666789,1198
1666810,306
1666848,456
1666890,839
1666895,764
1666915,482
1666958,500
1666979,860
1667000,677
1667043,458
1667064,735
1667085,850
1667128,704
1667148,574
1667170,843
1667213,1056
1667233,776
1667255,529
1667298,360
1667318,268
1667340,308
1667481,332
1667527,-342
1667571,-40
1667590,-638
1667632,-894
1667655,-410
1667675,-242
1667717,-428
1667722,-761
1667741,-932
1667762,-904
1667804,-903
1667825,-1401
1667847,-1553
1667889,-1548
1667910,-1826
1667932,-2116
1667974,-2190
1668013,-1703
1668018,-1666
1668061,-1892
1668081,-2202
1668102,-2078
1668145,-1961
1668166,-2110
1668186,-2260
1668229,-2331
1668250,-2097
1668272,-1955
1668315,-1912
1668335,-1841
1668357,-1726
1668400,-1686
1668421,-1890
1668442,-1827
1668485,-1639
1668505,-1871
1668616,-2077
1668699,-1652
1668744,-703
1668756,-1664
1668777,-1741
1668820,-1565
1668840,-1683
1668862,-1857
1668905,-1784
1668926,-1351
1668947,-1379
1668990,-1457
1669011,-1029
1669032,-788
1669075,-855
1669096,-1471
1669134,-1472
1669176,-1252
1669182,-1023
1669202,-1087
1669245,-1141
1669266,-1218
1669287,-1253
1669330,-1234
1669351,-1108
1669372,-1169
1669415,-1263
1669436,-1065
1669457,-820
1669500,-664
1669521,-753
1669542,-891
1669585,-1017
1669606,-1101
1669627,-1045
1669768,-1001
1669814,-440
1669859,-1233
1669878,-983
1669920,-655
1669941,-898
1669962,-1159
1670005,-1123
1670026,-493
1670047,-404
1670090,-558
1670111,-959
1670132,-1010
1670175,-967
1670195,-902
1670217,-901
1670292,-862
1670301,-626
1670343,-602
1670366,-509
1670387,-504
1670430,-599
1670450,-906
1670472,-949
1670515,-944
1670535,-974
1670557,-956
1670599,-901
1670620,-857
1670642,-870
1670684,-827
1670705,-685
1670726,-719
1670769,-772
1670790,-906
1670902,-1026
1670985,-509
1671030,-303
1671040,-555
1671062,-888
1671105,-926
1671125,-399
1671147,-285
1671190,-342
1671210,-676
1671232,-759
1671274,-687
1671295,-430
1671317,-591
1671359,-917
1671380,-1186
1671402,-1027
1671477,-876
1671486,-990
1671529,-923
1671549,-531
1671571,-352
1671613,-266
1671634,-354
1671655,-464
1671698,-562
1671719,-662
1671740,-728
1671783,-834
1671804,-1057
1671825,-1071
1671868,-990
1671889,-682
1671910,-631
1672051,-708
1672097,-680
1672142,-528
1672161,-611
1672203,-688
1672224,-742
1672245,-600
1672288,-365
1672309,-393
1672330,-711
1672373,-865
1672395,-496
1672417,-511
1672460,-769
1672480,-1021
1672500,-937
1672543,-921
1672565,-887
1672587,-783
1673205,-803
1673493,-337
1673657,-410
1673742,-675
1673787,-831
1673802,-514
1673824,-753
1673867,-1087
1673887,-594
1673909,-303
1673951,-523
1673972,-1018
1673994,-606
1674036,-213
1674057,-609
1674078,-834
1674121,-735
1674142,-549
1674341,-708
1674465,-568
1674511,-846
1674554,-349
1674560,-966
1674578,-998
1674621,-748
1674642,-712
1674663,-1145
1674706,-1472
1674711,-1441
1674729,-1156
1674749,-911
1674791,-843
1674796,-827
1674815,-726
1674836,-568
1674879,-447
1674917,-435
1674922,-465
1674965,-491
1674984,-495
1675005,-511
1675048,-581
1675053,-672
1675071,-694
1675093,-589
1675134,-469
1675155,-883
1675177,-1268
1675217,-1401
1675222,-1168
1675241,-809
1675262,-709
1675302,-971
1675308,-1269
1675328,-1155
1675349,-545
1675488,101
1675531,-372
1675571,-1265
1675579,-1271
1675600,-754
1675640,-429
1675645,-383
1675665,-392
1675687,-277
1675727,-138
1675732,-156
1675750,-320
1675772,-463
1675812,-501
1675817,-532
1675837,-685
1675859,-901
1675935,-988
1675943,-349
1675983,-344
1675988,-474
1676007,-594
1676028,-634
1676068,-677
1676073,-799
1676093,-974
1676115,-1089
1676155,-1098
1676160,-1082
1676179,-1143
1676200,-1278
1676240,-1395
1676246,-1443
1676266,-1447
1676286,-1422
1676326,-1348
1676331,-1230
1676351,-1135
1676373,-1164
1676412,-1293
1676418,-1388
1676438,-1345
1676459,-1249
1676499,-1294
1676504,-1555
1676523,-1881
1676631,-2045
1676709,-1068
1676715,-1049
1676755,-1161
1676774,-1299
1676814,-1314
1676854,-1400
1676860,-1531
1676880,-1364
1676920,-1091
1676925,-910
1676945,-903
1676967,-936
1677007,-892
1677012,-803
1677032,-816
1677053,-951
1677093,-1101
1677098,-1122
1677117,-945
1677138,-579
1677178,-64
1677183,444
1677203,770
1677225,900
1677265,1102
1677270,1702
1677290,2682
1677310,3632
1677351,4148
1677356,4264
1677376,4387
1677397,4818
1677439,5435
1677444,5850
1677461,5864
1677482,5571
1677524,5160
1677529,4727
1677548,4228
1677569,3611
1677611,2893
1677650,1159
1677655,231
1677795,-573
1677840,-2843
1677884,-2254
1677903,-2431
1677946,-2083
1677967,-1672
1677988,-1876
1678031,-2041
1678052,-2005
1678074,-2134
1678117,-2310
1678137,-1898
1678159,-1606
1678202,-1710
1678223,-2414
1678244,-2252
1678287,-1840
1678308,-1853
1678329,-2173
1678372,-2177
1678393,-1558
1678415,-1670
1678458,-2090
1678478,-2303
1678500,-2034
1678543,-1906
1678563,-2143
1678585,-2017
1678627,-1670
1678648,-1137
1678670,-1116
1678712,-1203
1678751,-1447
1678756,-1410
1678798,-1249
1678819,-1303
1678930,-1526
1679012,-1151
1679056,-1183
1679069,-1308
1679089,-1064
1679131,-919
1679136,-1005
1679154,-1149
1679176,-1139
1679218,-975
1679239,-773
1679260,-859
1679302,-1000
1679307,-1145
1679326,-1208
1679346,-1130
1679388,-960
1679393,-837
1679412,-844
1679433,-871
1679475,-760
1679496,-383
1679518,-429
1679560,-555
1679582,-509
1679603,-483
1679646,-539
1679666,-264
1679688,6
1679730,56
1679752,-241
1679773,-16
1679848,348
1679857,-579
1679899,-701
1679904,-286
1679922,261
1679944,489
1680084,407
1680130,618
1680174,405
1680193,525
1680236,661
1680256,838
1680278,984
1680320,1125
1680343,926
1680363,766
1680405,815
1680410,1000
1680429,1068
1680450,927
1680493,759
1680513,945
1680535,1055
1680578,973
1680598,578
1680620,450
1680662,379
1680683,300
1680704,303
1680747,322
1680768,196
1680789,57
1680831,18
1680836,163
1680855,342
1680876,234
1680918,-283
1680939,-1094
1680961,-796
1681036,-453
1681044,-1471
1681086,-1466
1681091,-1145
1681110,-887
1681222,-878
1681304,-1557
1681348,-1687
1681359,-1463
1681381,-1318
1681423,-1394
1681444,-1632
1681465,-1485
1681508,-1339
1681529,-1625
1681550,-1803
1681593,-1788
1681615,-1476
1681637,-1445
1681679,-1492
1681700,-1477
1681721,-1467
1681764,-1484
1681785,-1356
1681806,-1293
1681849,-1366
1681870,-1431
1681891,-1138
1681934,-841
1681954,-983
1681976,-1134
1682018,-1069
1682039,-911
1682061,-1073
1682136,-1213
1682144,-1103
1682187,-1170
1682192,-1155
1682209,-993
1682230,-807
1682371,-797
1682417,-541
1682461,-955
1682481,-269
1682524,-413
1682544,-917
1682566,-777
1682608,-557
1682630,-443
1682652,-344
1682694,-173
1682715,-240
1682736,-425
1682778,-455
1682799,-341
1682821,-502
1682863,-670
1682868,-618
1682886,-358
1682908,-99
1682950,-27
1682971,-81
1682992,13
1683034,78
1683056,-309
1683078,-583
1683120,-704
1683141,-473
1683162,-343
1683205,-267
1683225,-134
1683263,-66
1683305,-15
1683311,51
1683332,31
1683375,-74
1683397,-209
1683507,-44
1683589,-162
1683634,-514
1683646,91
1683668,172
1683710,-60
1683731,90
1683752,398
1683794,316
1683800,-122
1683818,-372
1683839,-148
1683882,193
1683902,-255
1683924,-494
1683966,-265
1683987,98
1684008,-218
1684051,-344
1684073,298
1684094,156
1684137,-381
1684157,-272
1684179,427
1684221,644
1684242,-622
1684264,-803
1684306,-279
1684311,360
1684329,476
1684351,36
1684393,-447
1684414,-159
1684452,205
1684494,249
1684500,-265
1684520,-316
1684661,-188
1684707,-183
1684750,26
1684771,-166
1684813,-428
1684834,-343
1684855,-94
1684898,-37
1684918,-356
1684940,-249
1684982,77
1684987,375
1685005,416
1685104,182
1685148,-259
1685192,-167
1685236,-698
1685257,62
1685278,-11
1685320,-314
1685341,-357
1685362,-141
1685405,-43
1685427,-266
1685448,-462
1685490,-680
1685511,-604
1685533,-113
1685575,383
1685596,161
1685617,-210
1685660,-156
1685682,752
1685818,617
1685901,28
1685946,-67
1685952,235
1685994,218
1686016,107
1686038,-12
1686080,-66
1686100,249
1686122,221
1686164,-110
1686185,-632
1686207,-356
1686249,7
1686271,-257
1686292,-585
1686335,-525
1686355,352
1686377,415
1686419,143
1686440,-102
1686462,73
1686504,163
1686509,100
1686527,47
1686549,121
1686591,261
1686611,322
1686633,342
1686675,434
1686696,352
1686717,57
1686760,-217
1686765,-292
1686783,-182
1686805,-66
1686847,-87
1686954,-320
1687000,134
1687076,-270
1687120,157
1687139,-62
1687181,-131
1687202,140
1687224,361
1687266,365
1687287,-280
1687308,-381
1687351,-121
1687371,540
1687393,440
1687436,181
1687458,260
1687479,551
1687522,621
1687543,-85
1687564,-268
1687607,-79
1687627,261
1687649,27
1687691,-200
1687712,27
1687733,185
1687776,175
1687796,29
1687820,38
1687862,69
1687882,216
1687904,264
1687946,197
1687967,-120
1688087,-137
1688169,-101
1688213,176
1688218,269
1688238,392
1688280,478
1688285,369
1688323,97
1688328,-23
1688370,223
1688389,730
1688411,343
1688452,-156
1688474,271
1688494,782
1688535,794
1688540,335
1688560,-65
1688581,-24
1688621,323
1688626,539
1688646,436
1688668,231
1688708,186
1688713,278
1688731,316
1688753,255
1688793,245
1688798,348
1688818,418
1688839,325
1688879,205
1688884,301
1688904,564
1688926,620
1688966,282
1688971,-173
1688989,-265
1689011,87
1689051,463
1689056,471
1689076,156
1689097,-78
1689236,65
1689280,690
1689321,1189
1689327,1208
1689365,662
1689405,345
1689411,1002
1689433,1201
1689474,966
1689479,603
1689499,495
1689520,717
1689560,1022
1689566,1111
1689584,908
1689606,591
1689646,453
1689651,596
1689670,831
1689691,831
1689731,516
1689737,127
1689756,-17
1689778,109
1689818,234
1689823,182
1689842,50
1689863,18
1689903,82
1689908,88
1689928,25
1689949,55
1689989,198
1689994,262
1690014,89
1690036,-186
1690076,-216
1690081,79
1690101,377
1690122,323
1690162,-44
1690167,-334
1690186,-249
1690224,99
1690263,390
1690271,302
1690380,141
1690457,384
1690463,-487
1690503,-344
1690522,520
1690544,514
1690584,216
1690589,31
1690609,206
1690630,566
1690670,748
1690675,627
1690695,432
1690717,502
1690756,928
1690761,1519
1690780,2016
1690801,2351
1690842,2739
1690847,3389
1690867,4285
1690889,5171
1690929,5729
1690934,5945
1690953,6150
1690975,6657
1691016,7366
1691037,7806
1691059,7377
1691101,6944
1691122,6287
1691143,5574
1691186,4527
1691191,3429
1691208,2454
1691670,1561
1691911,-599
1692035,-271
1692080,-80
1692123,-440
1692137,-373
1692179,-498
1692184,-648
1692202,-654
1692224,-521
1692266,-427
1692287,-581
1692308,-521
1692350,-251
1692355,38
1692373,106
1692395,-72
1692437,-274
1692458,-53
1692479,61
1692521,-129
1692526,-462
1692545,-573
1692566,-306
1692608,114
1692629,236
1692650,-15
1692693,-116
1692797,346
1692842,123
1692884,556
1692902,565
1692944,629
1692965,833
1692986,763
1693029,754
1693051,1102
1693072,1038
1693148,742
1693156,1111
1693199,1243
1693220,863
1693241,995
1693283,1297
1693304,1217
1693326,1071
1693368,1243
1693389,1713
1693410,1514
1693453,1283
1693474,1621
1693495,1823
1693538,1753
1693560,1398
1693580,1424
1693623,1543
1693628,1681
1693645,1790
1693666,1819
1693709,1767
1693731,1880
1693753,2125
1693795,2268
1693816,1977
1693930,1976
1694012,1335
1694057,1609
1694066,1659
1694086,2105
1694129,2300
1694134,2091
1694151,1716
1694173,1479
1694215,1451
1694238,1295
1694275,1053
1694318,941
1694324,1138
1694344,1045
1694386,748
1694407,508
1694428,683
1694471,708
1694491,-28
1694513,-308
1694555,-329
1694560,-242
1694578,-221
1694600,-282
1694642,-335
1694662,-468
1694684,-643
1694726,-772
1694748,-710
1694770,-755
1694812,-953
1694833,-1177
1694854,-990
1694897,-777
1694917,-901
1694939,-1072
1695080,-1080
1695126,-1213
1695169,-964
1695190,-990
1695233,-849
1695253,-964
1695275,-1089
1695317,-1069
1695338,-836
1695360,-800
1695435,-813
1695443,-860
1695486,-751
1695508,-713
1695529,-931
1695572,-1185
1695592,-1205
1695614,-998
1695656,-777
1695677,-574
1695699,-619
1695741,-656
1695762,-335
1695783,-178
1695825,-184
1695830,-293
1695849,-387
1695948,-471
1695993,-345
1696036,-695
1696079,-608
1696100,-522
1696210,-731
1696292,-735
1696337,201
1696349,-879
1696371,-903
1696413,-460
1696434,-53
1696455,-529
1696498,-1011
1696503,-994
1696521,-419
1696543,231
1696585,361
1696606,-542
1696627,-494
1696702,1
1696710,-579
1696753,-996
1696758,-893
1696776,-569
1696798,-483
1696840,-689
1696861,-515
1696882,-50
1696924,154
1696945,-400
1696966,-427
1697009,-95
1697014,242
1697032,228
1697054,-85
1697096,-305
1697116,266
1697138,539
1697180,439
1697185,122
1697202,-123
1697225,-227
1697366,-307
1697411,-553
1697455,-72
1697474,18
1697516,-138
1697538,-80
1697560,4
1697602,-66
1697623,-551
1697644,-638
1697686,-479
1697709,-97
1697730,-247
1697772,-534
1697793,-468
1697831,-162
1697873,-57
1697879,-462
1697899,-529
1697941,-474
1697946,-476
1697963,-581
1697986,-630
1698028,-488
1698049,-274
1698071,-449
1698113,-558
1698134,-113
1698155,-67
1698197,-330
1698220,-589
1698241,-273
1698284,-9
1698304,-217
1698326,-272
1698368,-115
1698388,171
1698500,118
1698583,-347
1698627,-650
1698640,-382
1698661,-80
1698703,23
1698724,-202
1698746,-308
1698788,-426
1698809,-607
1698830,-485
1698872,-342
1698877,-419
1698896,-706
1698917,-902
1698993,-749
1699001,-194
1699043,-453
1699064,-405
1699085,-273
1699128,-369
1699149,-721
1699170,-618
1699213,-474
1699218,-505
1699236,-664
1699257,-679
1699300,-400
1699321,344
1699342,252
1699384,-165
1699405,-670
1699427,-385
1699469,16
1699490,-67
1699513,-381
1699653,-404
1699700,-42
1699743,-583
1699762,-612
1699805,-560
1699825,-669
1699847,-631
1699889,-424
1699911,52
1699933,18
1699975,-195
1699996,-444
1700017,-313
1700060,-196
1700080,-338
1700102,-362
1700144,-222
1700183,-226
1700188,-562
1700231,-787
1700251,-419
1700273,-305
1700315,-461
1700336,-588
1700358,-365
1700400,-205
1700421,-180
1700442,-56
1700485,74
1700505,-137
1700527,-202
1700569,-47
1700591,91
1700613,-177
1700655,-393
1700676,-180
1700787,-179
1700870,-519
1700915,-744
1700925,123
1700947,-179
1700989,-712
1701010,-542
1701033,-214
1701075,-295
1701096,-729
1701117,-539
1701160,-385
1701181,-732
1701202,-677
1701244,-389
1701265,-558
1701288,-940
1701330,-983
1701370,-205
1701375,-71
1701417,-215
1701437,-503
1701458,-490
1701500,-426
1701521,-301
1701543,-456
1701585,-745
1701606,-724
1701627,-330
1701670,-128
1701690,-725
1701712,-866
1701754,-673
1701777,-629
1701798,-955
1701939,-1035
1701986,-403
1702029,-856
1702048,-1180
1702090,-662
1702112,-868
1702133,-1354
1702174,-1406
1702179,-983
1702197,-477
1702219,-222
1702259,-237
1702264,-380
1702283,-564
1702304,-707
1702344,-712
1702349,-562
1702369,-420
1702391,-503
1702463,-764
1702475,-625
1702515,-447
1702520,-486
1702540,-635
1702561,-707
1702601,-673
1702606,-620
1702626,-600
1702647,-602
1702687,-598
1702692,-593
1702712,-618
1702732,-668
1702772,-714
1702777,-738
1702797,-744
1702818,-726
1702858,-691
1702863,-645
1702883,-599
1702904,-574
1702944,-551
1702949,-489
1702969,-351
1703083,-151
1703160,-466
1703201,-431
1703219,-386
1703240,-99
1703280,-39
1703285,-324
1703305,-727
1703326,-926
1703366,-846
1703371,-665
1703391,-591
1703429,-645
1703468,-669
1703476,-288
1703498,-141
1703537,-256
1703542,-610
1703562,-993
1703584,-1149
1703624,-1043
1703629,-910
1703649,-975
1703670,-1217
1703710,-1350
1703715,-1167
1703734,-791
1703755,-530
1703795,-526
1703800,-667
1703820,-782
1703842,-862
1703881,-996
1703886,-1174
1703906,-1315
1703928,-1351
1703968,-1339
1703973,-1349
1703993,-1353
1704013,-1252
1704053,-1048
1704059,-817
1704079,-641
1704100,-580
1704238,-640
1704282,-925
1704323,-1140
1704362,-930
1704403,-1082
1704414,-337
1704435,-23
1704475,63
1704480,187
1704500,579
1704522,1107
1704562,1499
1704567,1736
1704586,2104
1704607,2784
1704647,3647
1704653,4422
1704671,5001
1704693,5480
1704733,5887
1704738,6171
1704758,6289
1704779,6280
1704820,6097
1704825,5612
1704843,4801
1704865,3862
1704907,3049
1704912,2379
1704930,1638
1704952,696
1704993,-281
1704998,-1024
1705017,-1502
1705037,-1891
1705078,-2275
1705083,-2530
1705102,-2546
1705123,-2423
1705166,-2338
1705204,-2165
1705209,-1865
1705252,-1591
1705273,-1745
1705381,-1857
1705463,-2115
1705508,-1460
1705522,-1359
1705544,-1368
1705586,-1380
1705607,-1277
1705628,-1306
1705670,-1517
1705675,-1834
1705694,-2013
1705715,-1933
1705757,-1703
1705778,-1606
1705800,-1682
1705842,-1590
1705863,-1098
1705884,-1099
1705926,-1305
1705931,-1519
1705950,-1574
1705971,-1511
1706013,-1477
1706034,-1660
1706056,-1660
1706097,-1500
1706103,-1275
1706119,-1165
1706141,-1263
1706183,-1466
1706221,-1522
1706227,-981
1706269,-804
1706291,-1022
1706311,-919
1706353,-561
1706358,-211
1706376,-143
1706398,-349
1706538,-577
1706583,-996
1706626,-673
1706631,-674
1706648,-703
1706690,-631
1706695,-479
1706713,-342
1706814,-343
1706858,-663
1706900,-144
1706944,-105
1706964,32
1706986,170
1707028,169
1707032,67
1707051,28
1707072,92
1707114,148
1707136,37
1707158,84
1707199,233
1707220,305
1707241,324
1707283,492
1707288,719
1707307,786
1707328,681
1707370,616
1707409,871
1707414,866
1707456,689
1707477,519
1707498,650
1707540,771
1707561,632
1707671,489
1707753,852
1707797,777
1707811,529
1707833,304
1707875,289
1707880,435
1707898,553
1707920,545
1707962,455
1707982,177
1708004,44
1708045,38
1708050,201
1708069,341
1708090,203
1708132,-220
1708153,-719
1708176,-514
1708218,-379
1708239,-981
1708260,-1238
1708302,-1163
1708324,-825
1708344,-978
1708386,-1244
1708392,-1351
1708410,-1186
1708432,-914
1708474,-820
1708494,-1595
1708532,-1952
1708575,-1913
1708581,-1557
1708601,-1902
1708643,-2406
1708648,-2575
1708665,-2219
1708687,-1687
1708828,-1483
1708874,-1858
1708918,-2028
1708937,-1896
1708979,-2028
1709002,-1777
1709022,-1450
1709064,-1385
1709069,-1696
1709088,-2082
1709108,-2153
1709150,-1893
1709155,-1651
1709172,-1753
1709194,-2097
1709236,-2284
1709257,-1659
1709279,-1384
1709321,-1385
1709326,-1504
1709345,-1537
1709365,-1440
1709407,-1322
1709412,-1301
1709431,-1394
1709451,-1557
1710081,-1704
1710364,-680
1710526,-892
1710610,-930
1710654,-526
1710668,-951
1710690,-1026
1710731,-795
1710752,-594
1710774,-963
1710816,-1202
1710821,-975
1710839,-466
1710861,-147
1710902,-268
1710923,-682
1710945,-502
1710987,-309
1710992,-391
1711010,-747
1711032,-1120
1711074,-1278
1711094,-995
1711200,-824
1711281,-309
1711287,-509
1711329,-807
1711345,-382
1711367,-64
1711408,-188
1711414,-697
1711432,-1131
1711453,-1077
1711495,-653
1711516,-479
1711538,-862
1711612,-1040
1711622,91
1711664,189
1711686,37
1711708,-22
1711749,-120
1711772,-489
1711793,-648
1711835,-743
1711856,-746
1711877,-679
1711919,-595
1711924,-523
1711942,-473
1711964,-452
1712006,-450
1712026,-414
1712048,-371
1712090,-354
1712095,-414
1712112,-493
1712135,-489
1712177,-370
1712197,-193
1712219,-301
1712359,-457
1712405,-568
1712447,-671
1712453,-492
1712471,-386
1712513,-315
1712534,-285
1712555,-258
1712597,-191
1712602,-139
1712620,-183
1712642,-358
1712717,-609
1712725,-899
1712767,-935
1712772,-980
1712790,-896
1712812,-640
1712853,-388
1712859,-334
1712877,-425
1712897,-399
1712939,-141
1712944,85
1712962,-92
1712983,-629
1713025,-1030
1713030,-882
1713049,-373
1713070,-74
1713112,-267
1713133,-739
1713154,-421
1713196,-99
1713201,-145
1713219,-467
1713241,-706
1713283,-682
1713305,-618
1713326,-788
1713368,-842
1713389,-311
1713500,-162
1713582,-670
1713625,-840
1713640,-203
1713661,36
1713703,0
1713725,-236
1713763,-105
1713805,-27
1713810,-697
1713830,-939
1713872,-668
1713877,-88
1713895,286
1713917,161
1713959,-221
1713964,-382
1713982,-151
1714004,151
1714045,112
1714066,-723
1714087,-828
1714129,-674
1714134,-554
1714153,-592
1714174,-606
1714216,-414
1714237,-54
1714260,-292
1714302,-563
1714322,-365
1714344,-257
1714386,-400
1714391,-572
1714409,-482
1714431,-179
1714472,4
1714493,-218
1714516,-122
1714656,131
1714702,-23
1714745,-148
1714766,123
1714808,-150
1714828,-391
1714866,-50
1714908,288
1714914,191
1714935,-60
1714977,-208
1714998,68
1715021,301
1715063,346
1715084,-151
1715105,-243
1715147,-88
1715152,119
1715170,143
1715192,-30
1715234,-235
1715254,-342
1715276,-373
1715318,-406
1715323,-345
1715341,-184
1715363,-33
1715404,-1
1715409,-33
1715427,1
1715448,138
1715490,270
1715495,267
1715514,150
1715535,75
1715577,132
1715597,211
1715619,63
1715660,-82
1715665,-90
1715684,0
1715795,53
1715875,488
1715916,731
1715934,320
1715972,-77
1716011,-295
1716019,-179
1716040,-78
1716080,30
1716085,157
1716105,240
1716126,259
1716166,279
1716171,416
1716191,626
1716213,697
1716252,462
1716257,24
1716277,-314
1716299,-353
1716339,-203
1716344,-122
1716364,-238
1716385,-406
1716425,-486
1716430,-504
1716448,-586
1716470,-708
1716510,-711
1716515,-493
1716535,-227
1716556,-174
1716596,-330
1716601,-437
1716621,-316
1716643,-97
1716682,-21
1716687,-123
1716707,-218
1716729,-237
1716768,-292
1716773,-453
1716811,-574
1716816,-507
1716955,-344
1716998,-301
1717038,-535
1717044,-248
1717065,-185
1717105,-221
1717110,-168
1717130,-15
1717151,47
1717191,-102
1717196,-279
1717216,-224
1717237,45
1717277,240
1717282,187
1717302,46
1717325,138
1717364,561
1717369,1112
1717388,1560
1717409,1916
1717449,2342
1717454,2924
1717474,3621
1717496,4353
1717536,5135
1717541,5928
1717560,6549
1717660,6808
1717704,6880
1717746,5937
1717752,4217
1717794,3504
1717813,1936
1717834,1115
1717909,318
1717919,-1675
1717960,-1739
1717981,-1724
1718091,-1974
1718172,-1431
1718215,-940
1718231,-1303
1718253,-1334
1718295,-1057
1718300,-730
1718318,-642
1718340,-812
1718381,-1020
1718402,-1087
1718424,-1142
1718466,-1250
1718471,-1284
1718489,-1178
1718511,-1053
1718553,-1032
1718573,-952
1718595,-734
1718637,-614
1718642,-726
1718660,-895
1718682,-903
1718724,-782
1718744,-989
1718766,-1166
1718808,-1074
1718813,-805
1718831,-630
1718853,-657
1718894,-668
1718933,-306
1718938,-350
1718980,-623
1719001,-727
1719022,-452
1719063,-324
1719069,-463
1719087,-690
1719108,-715
1719248,-514
1719293,-615
1719335,-258
1719341,-235
1719359,-22
1719400,326
1719405,615
1719424,669
1719445,483
1719487,239
1719492,127
1719510,163
1719532,209
1719574,151
1719596,-49
1719617,-24
1719659,98
1719681,426
1719702,547
1719744,579
1719765,460
1719786,492
1719828,593
1719833,644
1719852,569
1719873,462
1719915,420
1719936,405
1719957,324
1719999,289
1720037,392
1720043,846
1720085,1055
1720106,1316
1720128,1275
1720170,1142
1720191,1002
1720212,989
1720255,925
1720260,858
1720278,911
1720386,1068
1720469,1600
1720513,1091
1720527,1393
1720549,1493
1720591,1401
1720612,1254
1720634,1393
1720676,1590
1720698,1754
1720720,1625
1720762,1404
1720783,1182
1720805,1234
1720847,1187
1720868,609
1720889,480
1720931,628
1720952,809
1720974,465
1721016,79
1721021,-56
1721039,87
1721060,219
1721102,62
1721123,-715
1721145,-881
1721219,-888
1721229,-1035
1721271,-866
1721292,-723
1721314,-1018
1721356,-1256
1721361,-1207
1721379,-1013
1721401,-1030
1721541,-1376
1721587,-1755
1721630,-1188
1721651,-1808
1721693,-1870
1721714,-1090
1721735,-1087
1721777,-1432
1721798,-1477
1721820,-1070
1721862,-937
1721867,-1199
1721885,-1517
1721907,-1466
1721949,-1075
1721970,-980
1721991,-1437
1722033,-1685
1722054,-1084
1722076,-949
1722118,-1181
1722123,-1491
1722142,-1557
1722163,-1390
1722205,-1253
1722244,-1352
1722249,-1283
1722291,-1081
1722312,-958
1722332,-1100
1722374,-1169
1722379,-1095
1722397,-968
1722419,-956
1722461,-1117
1722482,-1430
1722503,-1343
1722546,-1177
1722568,-1035
1722680,-930
1722762,-1171
1722806,-875
1722817,-1254
1722838,-903
1722880,-535
1722885,-429
1722904,-516
1722924,-534
1722966,-381
1722971,-195
1722989,-130
1723011,-139
1723053,-86
1723075,45
1723096,-225
1723138,-702
1723159,-1005
1723180,-627
1723222,-386
1723227,-638
1723246,-1186
1723284,-1451
1723326,-1042
1723332,308
1723352,114
1723394,-497
1723416,-694
1723438,-269
1723480,-76
1723500,-478
1723522,-510
1723564,-366
1723586,-265
1723607,-253
1723649,-164
1723670,-195
1723692,-418
1723832,-570
1723878,-119
1723920,-532
1723942,-236
1723984,135
1724006,-231
1724027,-421
1724069,-232
1724090,186
1724112,-108
1724154,-524
1724159,-790
1724177,-845
1724199,-824
1724241,-836
1724261,-892
1724283,-816
1724325,-632
1724330,-356
1724348,-87
1724370,17
1724444,-47
1724453,210
1724495,176
1724500,-167
1724518,-524
1724540,-554
1724581,-303
1724602,-286
1724624,-507
1724666,-454
1724671,-152
1724689,23
1724710,-186
1724752,-596
1724773,-808
1724795,-732
1724837,-812
1724842,-958
1724860,-985
1724970,-874
1725052,132
1725096,-549
1725110,-903
1725132,-969
1725174,-880
1725195,-516
1725216,-455
1725258,-392
1725280,125
1725302,295
1725344,198
1725365,-319
1725386,-395
1725428,-342
1725433,-284
1725451,-262
1725473,-259
1725548,-293
1725556,-407
1725598,-213
1725621,-67
1725642,-327
1725684,-568
1725705,-357
1725726,-225
1725768,-382
1725791,-920
1725812,-838
1725854,-660
1725875,-953
1725896,-1167
1725939,-1046
1725959,-392
1725981,-396
1726121,-509
1726167,-304
1726210,-565
1726231,-144
1726273,-394
1726296,-756
1726317,-361
1726359,103
1726380,-52
1726401,-199
1726443,-27
1726448,179
1726467,17
1726488,-435
1726530,-666
1726551,11
1726572,0
1726614,-469
1726619,-818
1726638,-553
1726659,80
1727070,388
1727334,-203
1727496,-222
1727580,42
1727624,-352
1727630,-188
1727650,-165
1727692,-134
1727697,-73
1727715,-57
1727736,-157
1727778,-338
1727799,-228
1727820,38
1727862,134
1727868,-55
1727886,-347
1727907,-454
1727949,-297
1727970,58
1727991,7
1728033,-103
1728038,-189
1728057,-244
1728078,-249
1728120,-155
1728142,210
1728164,241
1728206,102
1728227,-3
1728248,251
1728290,494
1728312,87
1728334,-295
1728474,-323
1728576,-364
1728622,-297
1728665,-168
1728741,-77
1728749,8
1728789,76
1728794,138
1728814,66
1728835,-124
1728875,-237
1728880,-156
1728900,-13
1728922,-18
1728962,-174
1728967,-256
1728987,-79
1729008,263
1729048,469
1729053,356
1729072,49
1729093,-149
1729133,-47
1729138,208
1729158,307
1729179,90
1729220,-286
1729225,-415
1729245,-109
1729266,415
1729306,714
1729311,601
1729330,322
1729351,236
1729391,422
1729396,616
1729416,557
1729438,285
1729478,66
1729483,56
1729501,193
1729613,320
1729691,636
1729767,138
1729773,277
1729813,480
1729818,618
1729837,572
1729858,349
1729898,165
1729903,223
1729923,429
1729945,421
1729985,-16
1729990,-597
1730010,-810
1730031,-478
1730072,4
1730076,138
1730095,-115
1730116,-366
1730156,-301
1730161,-69
1730181,-36
1730203,-277
1730243,-524
1730248,-506
1730268,-272
1730289,-123
1730329,-260
1730334,-575
1730354,-769
1730376,-615
1730416,-144
1730421,308
1730439,328
1730461,-179
1730501,-830
1730506,-1036
1730526,-611
1730547,0
1730620,192
1730631,-567
1730770,-99
1730814,-164
1730854,-617
1730860,79
1730882,153
1730922,-173
1730927,-460
1730947,-290
1730968,282
1731009,815
1731014,1027
1731032,1104
1731054,1380
1731094,1914
1731099,2509
1731119,3024
1731141,3551
1731181,4231
1731186,4988
1731205,5600
1731227,5995
1731268,6317
1731273,6727
1731291,7171
1731313,7374
1731355,7184
1731376,6314
1731397,6031
1731440,5688
1731461,3985
1731482,2879
1731524,1962
1731545,510
1731567,-310
1731609,-1086
1731647,-1626
1731653,-1914
1731695,-1780
1731716,-1209
1731737,-1049
1731780,-1022
1731800,-678
1731911,-423
1731993,-579
1732037,-1232
1732052,-192
1732073,-346
1732115,-829
1732136,-1058
1732157,-917
1732200,-974
1732220,-1205
1732242,-1062
1732284,-843
1732289,-643
1732308,-452
1732329,-293
1732371,-277
1732392,-563
1732413,-532
1732456,-389
1732478,-731
1732498,-1085
1732540,-1107
1732545,-738
1732564,-310
1732585,-205
1732628,-426
1732648,-433
1732670,-78
1732712,68
1732750,-636
1732756,-808
1732798,-608
1732819,-303
1732840,-550
1732882,-703
1732903,-87
1732924,220
1733065,171
1733111,415
1733155,118
1733175,377
1733218,416
1733239,355
1733260,279
1733303,167
1733323,320
1733345,528
1733387,506
1733408,111
1733429,389
1733472,951
1733494,1183
1733516,846
1733558,713
1733579,1072
1733600,961
1733643,605
1733664,241
1733685,284
1733728,285
1733749,433
1733770,735
1733813,964
1733834,824
1733855,857
1733898,1115
1733918,1422
1733940,1259
1734016,1189
1734024,1656
1734067,1531
1734088,1364
1734199,1377
1734283,1113
1734328,1853
1734337,1960
1734359,1796
1734402,1766
1734422,1948
1734444,1733
1734487,1332
1734508,1003
1734529,1111
1734572,1063
1734593,471
1734614,383
1734657,456
1734678,211
1734699,29
1734742,88
1734762,269
1734784,-29
1734827,-433
1734847,-696
1734869,-605
1734911,-569
1734934,-835
1734955,-990
1734998,-1031
1735018,-867
1735040,-920
1735082,-1129
1735103,-1432
1735125,-1386
1735167,-1351
1735206,-1434
1735211,-1397
1735352,-1332
1735399,-894
1735443,-1406
1735460,-1202
1735503,-1135
1735524,-876
1735544,-870
1735587,-1118
1735607,-1263
1735629,-831
1735671,-560
1735694,-1328
1735715,-1498
1735758,-1144
1735779,-838
1735799,-1307
1735841,-1574
1735847,-1351
1735863,-997
1735885,-975
1735928,-1175
1735948,-755
1735970,-456
1736013,-638
1736035,-1254
1736056,-992
1736099,-749
1736120,-1396
1736141,-1507
1736184,-1106
1736205,-604
1736226,-866
1736269,-908
1736308,-85
1736313,-115
1736355,-578
1736374,-852
1736488,-509
1736571,-369
1736615,-461
1736624,-257
1736646,-140
1736689,-186
1736709,-291
1736731,-220
1736773,-199
1736794,-291
1736816,-211
1736858,-124
1736879,-403
1736900,-619
1736943,-696
1736965,-591
1736987,-541
1737029,-484
1737050,-435
1737071,-409
1737114,-224
1737135,355
1737156,246
1737199,-122
1737220,-336
1737241,-142
1737284,-124
1737304,-465
1737326,-368
1737368,-166
1737389,-155
1737410,-121
1737453,71
1737492,81
1737497,-256
1737638,-455
1737684,-307
1737728,-215
1737747,-399
1737790,-151
1737810,-21
1737831,-322
1737874,-523
1737895,124
1737916,439
1737959,320
1737979,-417
1738001,-292
1738044,93
1738064,186
1738086,-71
1738128,-62
1738133,269
1738151,554
1738173,443
1738216,-58
1738236,-627
1738258,-390
1738300,-224
1738321,-788
1738342,-890
1738385,-550
1738406,234
1738427,134
1738470,-132
1738490,-241
1738512,-198
1738554,-268
1738577,-441
1738597,-274
1738639,24
1738776,273
1738860,118
1738905,104
1738911,324
1738932,245
1738975,240
1738995,480
1739017,515
1739059,400
1739080,43
1739102,-92
1739144,-196
1739165,-212
1739186,-55
1739229,62
1739251,-327
1739350,-512
1739395,463
1739438,-20
1739482,356
1739501,-430
1739523,-484
1739565,-224
1739586,129
1739608,119
1739650,229
1739671,848
1739692,887
1739735,647
1739756,188
1739777,118
1739918,-32
1739964,226
1740008,817
1740027,613
1740070,-19
1740092,-71
1740112,290
1740155,292
1740193,-68
1740198,-283
1740241,-38
1740262,-157
1740283,-313
1740326,-244
1740346,31
1740368,-2
1740410,-22
1740431,171
1740454,351
1740496,603
1740517,769
1740539,475
1740581,183
1740602,394
1740623,435
1740666,123
1740687,-322
1740708,-7
1740751,276
1740771,75
1740793,66
1740835,227
1740857,225
1740879,106
1740921,178
1740942,435
1741054,272
1741137,406
1741182,-357
1741193,180
1741214,139
1741257,-127
1741277,-41
1741299,301
1741341,359
1741362,-317
1741383,-375
1741459,-174
1741467,-227
1741510,15
1741530,556
1741552,219
1741594,-224
1741617,56
1741638,333
1741681,208
1741701,-406
1741723,-303
1741765,-39
1741786,231
1741808,297
1741850,302
1741871,15
1741892,12
1741934,191
1741957,197
1741978,-79
1742021,-215
1742041,258
1742063,455
1742204,459
1742250,167
1742294,602
1742313,201
1742354,344
1742377,1257
1742398,1283
1742439,892
1742444,459
1742462,361
1742484,575
1742524,742
1742529,616
1742548,298
1742569,70
1742609,108
1742647,365
1742655,722
1742695,640
1742700,406
1742720,159
1742742,27
1742782,16
1742787,-8
1742805,-175
1742826,-445
1742866,-600
1742872,-474
1742892,-170
1742913,75
1742953,111
1742958,7
1742978,-95
1742999,-137
1743040,-125
1743045,-89
1743063,-94
1743084,-225
1743125,-535
1743130,-860
1743150,-918
1743171,-625
1743211,-259
1743216,-185
1743235,-410
1743346,-606
1743424,-113
1743467,111
1743486,245
1743507,72
1743547,-158
1743552,-187
1743572,27
1743594,209
1743634,136
1743671,-63
1743677,144
1743717,423
1743722,587
1743742,750
1743764,1102
1743804,1636
1743809,2162
1743829,2598
1743850,3086
1743890,3721
1743895,4380
1743914,4900
1743935,5312
1743977,5772
1743982,6255
1744001,6557
1744022,6581
1744065,6511
1744085,6610
1744107,6285
1744150,5435
1744170,3434
1744192,2770
1744235,2072
1744256,75
1744277,-715
1744319,-1167
1744340,-1741
1744362,-1868
1744502,-1641
1744548,-876
1744591,-482
1744612,-964
1744655,-729
1744676,-677
1744698,-809
1745120,-811
1745326,-315
1745413,14
1745458,-198
1745501,-123
1745507,161
1745614,127
1745696,770
1745740,505
1745753,401
1745774,212
1745817,82
1745839,-77
1745860,-148
1745902,-7
1745923,803
1745944,917
1745986,730
1745991,558
1746010,676
1746031,1032
1746073,1296
1746094,902
1746116,615
1746158,634
1746180,1397
1746200,1473
1746243,1125
1746265,404
1746287,592
1746329,881
1746350,776
1746371,708
1746414,880
1746434,1022
1746456,867
1746499,955
1746519,1819
1746557,1809
1746600,1411
1746606,1331
1746626,1789
1746767,2020
1746813,2050
1746858,1748
1746877,2303
1746920,2327
1746939,1785
1746961,1611
1747004,1552
1747024,1407
1747046,1350
1747089,1325
1747109,1152
1747131,1090
1747174,1204
1747195,1484
1747216,1229
1747259,830
1747279,670
1747301,828
1747344,839
1747364,410
1747386,231
1747428,156
1747450,197
1747472,166
1747514,11
1747535,-286
1747556,-195
1747599,-94
1747619,-487
1747642,-689
1747684,-627
1747705,-446
1747727,-767
1747901,-1160
1747985,-1237
1748030,-1407
1748038,-923
1748059,-1193
1748102,-1668
1748123,-1400
1748144,-974
1748187,-1139
1748208,-2297
1748229,-2028
1748272,-1320
1748293,-1281
1748314,-1818
1748357,-1866
1748378,-779
1748399,-732
1748442,-1096
1748463,-1134
1748484,-717
1748527,-539
1748548,-1106
1748569,-1218
1748612,-1054
1748633,-832
1748654,-984
1748697,-1131
1748719,-1051
1748739,-887
1748782,-749
1748804,-698
1748825,-812
1748868,-901
1748889,-495
1748910,-128
1749204,5
1749330,-748
1749413,-574
1749458,-517
1749469,-242
1749490,-79
1749532,-124
1749553,-400
1749575,-462
1749617,-517
1749638,-321
1749659,-26
1749702,110
1749707,-42
1749725,-281
1749746,-289
1749789,-50
1749809,-65
1749831,-414
1749873,-550
1749894,-80
1749915,-133
1749958,-446
1749963,-616
1749981,-413
1750001,-65
1750044,4
1750048,-300
1750067,-604
1750166,-513
1750210,-145
1750352,-538
1750436,87
1750481,-269
1750487,367
1750505,596
1750547,496
1750568,-292
1750606,-415
1750648,-252
1750654,-101
1750674,-309
1750717,-407
1750737,87
1750759,221
1750801,75
1750806,-124
1750824,-100
1750846,180
1750888,436
1750909,48
1750930,-312
1750973,-429
1750993,-59
1751015,-15
1751057,-153
1751062,-309
1751081,-299
1751102,-125
1751144,12
1751165,-264
1751186,-372
1751229,-266
1751250,15
1751271,-20
1751313,-16
1751318,94
1751336,177
1751358,77
1751499,-133
1751545,-37
1751588,569
1751607,156
1751650,30
1751672,-185
1751693,-302
1751769,-307
1751777,-487
1751819,-537
1751840,104
1751861,301
1751904,152
1751925,-301
1751946,-251
1751989,-181
1752011,-423
1752032,-499
1752075,-393
1752096,-22
1752117,18
1752159,-3
1752180,-49
1752201,-16
1752244,116
1752249,295
1752267,352
1752287,180
1752330,-84
1752335,-163
1752353,8
1752374,209
1752417,206
1752437,-89
1752459,-14
1752501,112
1752522,52
1752633,15
1752716,-501
1752761,-467
1752773,-200
1752794,27
1752837,12
1752858,-352
1752879,-425
1752922,-437
1752960,-406
1752965,-384
1753008,-425
1753027,-647
1753049,-658
1753091,-559
1753112,-220
1753133,-59
1753176,14
1753198,-151
1753220,-166
1753262,-30
1753283,76
1753304,-168
1753347,-423
1753368,-408
1753389,-277
1753432,-148
1753452,232
1753474,337
1753516,276
1753539,128
1753558,119
1753601,-28
1753606,-318
1753624,-510
1753646,-421
1753787,-200
1753833,-44
1753877,-590
1753896,-139
1753938,-554
1753959,-997
1753980,-518
1754023,-56
1754043,-253
1754065,-414
1754107,-261
1754145,71
1754151,212
1754193,28
1754214,-27
1754235,87
1754278,88
1754300,-378
1754320,-512
1754362,-380
1754367,-120
1754386,-8
1754407,-141
1754450,-285
1754470,365
1754492,768
1754534,720
1754555,-219
1754576,-392
1754619,-359
1754640,-564
1754661,-735
1754704,-775
1754725,-629
1754746,-464
1754789,-153
1754810,295
1754921,121
1755005,-118
1755049,-41
1755061,-43
1755083,-132
1755123,-39
1755128,137
1755147,191
1755168,13
1755209,-275
1755214,-434
1755232,-342
1755270,-102
1755310,100
1755317,312
1755339,538
1755379,762
1755384,770
1755403,534
1755424,310
1755465,322
1755470,456
1755490,376
1755511,-51
1755551,-534
1755556,-650
1755576,-325
1755598,144
1755638,377
1755643,266
1755661,8
1755683,-126
1755723,-27
1755728,215
1755748,391
1755769,303
1755809,-10
1755814,-248
1755834,-113
1755856,371
1755896,830
1755901,890
1755919,579
1755941,300
1756079,404
1756123,316
1756164,623
1756171,229
1756193,409
1756233,703
1756238,815
1756276,715
1756281,604
1756321,655
1756342,690
1756363,395
1756403,2
1756408,-308
1756428,-455
1756450,-463
1756490,-423
1756495,-430
1756513,-535
1756535,-664
1756575,-651
1756580,-412
1756600,-92
1756622,49
1756662,-102
1756667,-385
1756685,-519
1756707,-380
1756747,-124
1756752,38
1756772,38
1756793,-39
1756834,-88
1756839,-115
1756858,-159
1756879,-179
1756919,-121
1756924,-69
1756943,-187
1756964,-538
1757005,-874
1757010,-823
1757030,-336
1757051,195
1757091,360
1757228,97
1757308,279
1757351,795
1757363,1788
1757385,1495
1757425,1319
1757430,1782
1757449,2795
1757470,3762
1757511,4263
1757516,4471
1757535,4849
1757556,5598
1757598,6434
1757603,6957
1757621,7117
1757643,7178
1757685,7338
1757706,7212
1757727,6520
1757770,5623
1757791,4195
1757812,3556
1757855,2732
1757876,563
1757897,-374
1757940,-974
1757945,-1244
1757962,-1365
1757983,-1541
1758026,-1785
1758031,-1908
1758048,-1731
1758069,-1292
1758112,-846
1758133,-562
1758171,-553
1758214,-507
1758220,-648
1758240,-931
1758381,-1197
1758428,-1198
1758472,-1345
1758490,-1274
1758533,-1382
1758554,-1409
1758576,-1123
1758619,-732
1758639,-233
1758661,-264
1758704,-447
1758724,-768
1758746,-681
1758789,-506
1758809,-695
1758831,-973
1758873,-1008
1758894,-322
1758916,-199
1758958,-414
1758979,-933
1759001,-921
1759043,-792
1759064,-443
1759085,-255
1759128,-109
1759149,-33
1759170,-4
1759213,58
1759233,70
1759255,-68
1759298,-312
1759320,-766
1759358,-709
1759401,-397
1759406,259
1759517,221
1759600,467
1759645,-148
1759654,279
1759676,255
1759718,128
1759739,332
1759761,571
1759803,613
1759824,420
1759845,607
1759888,865
1759909,745
1759930,585
1759973,596
1759994,674
1760015,726
1760058,988
1760079,1411
1760101,1121
1760144,839
1760164,1468
1760186,1755
1760229,1512
1760250,863
1760271,1102
1760314,1356
1760335,1176
1760357,1283
1760400,1676
1760419,1842
1760441,1527
1760484,1457
1760505,2204
1760526,2143
1760701,1591
1760787,1022
1760833,1511
1760839,1374
1760859,1518
1760901,1496
1760922,1102
1761023,924
1761068,194
1761113,-546
1761157,-371
1761174,-238
1761196,-498
1761239,-657
1761259,-460
1761281,-546
1761324,-884
1761345,-1502
1761366,-1462
1761410,-1249
1761429,-1183
1761450,-1474
1761494,-1721
1761515,-1342
1761536,-1090
1761580,-1180
1761599,-1723
1761620,-1633
1761664,-1417
1761683,-1512
1761705,-1542
1761847,-1300
1761895,-1147
1761940,-1519
1761955,-1510
1762378,-1118
1762589,-737
1762677,-821
1762723,-512
1762766,-651
1762782,-604
1762826,-293
1762845,-382
1762958,-707
1763042,-325
1763087,-564
1763095,-283
1763117,-478
1763160,-740
1763180,-437
1763202,-75
1763245,-34
1763265,-326
1763287,-1
1763330,344
1763351,-357
1763372,-736
1763415,-501
1763436,32
1763457,-467
1763500,-916
1763521,-234
1763543,46
1763586,-161
1763606,-266
1763628,37
1763671,-33
1763691,-861
1763713,-635
1763756,-165
1763777,-778
1763798,-1349
1763841,-1168
1763880,212
1763885,88
1763928,-412
1763945,-233
1763967,84
1764108,-87
1764155,-725
1764199,19
1764217,-196
1764260,-312
1764280,165
1764302,100
1764345,-314
1764366,-645
1764387,-304
1764430,-88
1764451,-623
1764472,-709
1764515,-337
1764536,360
1764557,27
1764600,-426
1764621,-128
1764643,210
1764686,85
1764706,-699
1764728,-510
1764771,-48
1764791,27
1764813,-190
1764856,-127
1764876,167
1764898,-108
1764941,-432
1764962,-262
1764983,-143
1765026,-264
1765047,-364
1765085,-86
1765127,88
1765132,-189
1765242,-228
1765326,-882
1765372,-286
1765381,-67
1765402,51
1765445,124
1765466,1
1765487,-71
1765530,-127
1765551,-561
1765572,-763
1765615,-679
1765636,-59
1765657,-82
1765700,-252
1765721,205
1765742,584
1765785,595
1765806,121
1765828,188
1765870,241
1765891,-387
1765913,-576
1765956,-412
1765976,-150
1765998,-317
1766041,-398
1766060,-174
1766081,-154
1766124,-154
1766145,71
1766167,20
1766210,-234
1766230,-603
1766252,-583
1766427,-594
1766513,146
1766558,-76
1766564,216
1766585,240
1766628,124
1766649,-287
1766670,-393
1766713,-294
1766734,113
1766755,16
1766798,-306
1766819,-518
1766840,-178
1766884,187
1766904,185
1766926,5
1766968,7
1766989,460
1767010,419
1767054,51
1767074,-569
1767096,-476
1767139,-379
1767159,-745
1767181,-679
1767224,-221
1767245,341
1767266,47
1767309,-135
1767330,527
1767351,571
1767394,133
1767415,-488
1767436,-330
1767578,-256
1767624,-33
1767668,159
1767707,-59
1767751,-217
1767770,186
1767813,-116
1767833,-171
1767855,265
1767898,433
1767918,-113
1767940,-34
1767983,276
1768003,121
1768025,-97
1768068,69
1768088,520
1768110,179
1768152,-250
1768173,-88
1768195,161
1768237,155
1768258,-180
1768279,-95
1768322,215
1768343,805
1768365,702
1768408,375
1768428,210
1768450,393
1768493,312
1768513,-513
1768535,-427
1768578,67
1768598,253
1768710,-194
1768791,754
1768834,657
1768849,52
1768871,60
1768911,402
1768916,688
1768954,679
1768959,578
1768999,682
1769020,1198
1769041,1166
1769082,976
1769087,796
1769105,676
1769127,600
1769167,565
1769172,580
1769192,566
1769214,472
1769254,423
1769259,599
1769278,948
1769299,1168
1769340,1040
1769345,704
1769363,526
1769385,603
1769425,709
1769430,573
1769450,230
1769472,-69
1769512,-177
1769517,-112
1769535,11
1769558,103
1769598,115
1769604,16
1769622,-93
1769643,-66
1769683,132
1769688,342
1769708,373
1769730,231
1769868,71
1769912,-413
1769985,-80
1770027,-331
1770043,-387
1770064,-384
1770104,-470
1770109,-608
1770128,-648
1770149,-528
1770189,-292
1770194,-61
1770214,68
1770235,83
1770275,0
1770280,-97
1770300,-149
1770321,-143
1770361,-127
1770366,-159
1770386,-204
1770408,-211
1770448,-163
1770453,-92
1770473,4
1770494,240
1770534,670
1770539,1138
1770559,1419
1770581,1481
1770621,1653
1770626,2286
1770644,3366
1770666,4426
1770707,5029
1770712,5222
1770730,5468
1770752,6134
1770793,7042
1770799,7606
1770837,7424
1770880,5994
1770901,5290
1771009,4693
1771092,514
1771136,-1381
1771151,-1572
1771172,-1680
1771215,-1627
1771235,-1230
1771257,-1113
1771300,-1024
1771321,-675
1771342,-545
1771385,-544
1771406,-634
1771427,-587
1771470,-596
1771491,-944
1771512,-1070
1771556,-1066
1771576,-1051
1771598,-1089
1771641,-1049
1771660,-696
1771682,-539
1771724,-457
1771747,-356
1771845,-336
1771891,-739
1771934,-925
1771978,-334
1771997,63
1772019,-117
1772159,-248
1772205,-386
1772281,-295
1772325,-210
1772331,34
1772352,-230
1772395,-324
1772415,196
1772437,385
1772479,484
1772484,615
1772502,727
1772523,680
1772565,476
1772586,367
1772608,479
1772650,453
1772671,78
1772692,132
1772735,342
1772755,523
1772777,531
1772820,600
1772842,522
1772863,262
1772906,120
1772927,726
1772948,1084
1772991,1128
1773012,732
1773033,837
1773076,1169
1773097,1329
1773117,911
1773160,471
1773181,488
1773292,780
1773376,1299
1773421,1326
1773432,1601
1773453,1619
1773529,1439
1773538,1535
1773581,1722
1773600,1229
1773621,1034
1773665,1208
1773685,1592
1773707,1363
1773750,1143
1773771,1547
1773792,1720
1773835,1609
1773856,1570
1773876,1830
1773919,1859
1773940,996
1773962,839
1774005,998
1774025,721
1774047,296
1774090,247
1774110,915
1774132,790
1774174,428
1774195,354
1774217,427
1774259,203
1774280,-307
1774301,-294
1774443,-369
1774489,-529
1774533,-848
1774552,-999
1774594,-1285
1774617,-1635
1774637,-1687
1774679,-1603
1774718,-1203
1774723,-1284
1774766,-1548
1774785,-1424
1774807,-1151
1774850,-1214
1774871,-1897
1774892,-1785
1774935,-1452
1774956,-1579
1774978,-1894
1775021,-1941
1775041,-1355
1775063,-1229
1775106,-1276
1775127,-1336
1775147,-1185
1775190,-978
1775210,-835
1775232,-851
1775275,-761
1775295,-516
1775317,-683
1775360,-930
1775382,-1042
1775402,-1113
1775445,-1307
1775465,-1170
1775577,-811
1775661,-494
1775705,-1404
1775716,-690
1775738,-495
1775781,-580
1775801,-845
1775839,-697
1775882,-360
1775887,-38
1775907,-321
1775950,-680
1775971,-692
1775992,-516
1776035,-510
1776057,-724
1776079,-623
1776121,-392
1776142,-139
1776163,-212
1776206,-291
1776227,-153
1776248,-140
1776291,-325
1776311,-600
1776333,-357
1776375,-130
1776396,-495
1776417,-517
1776460,-118
1776482,269
1776504,-202
1776546,-533
1776567,94
1776588,167
1776729,-239
1776775,-256
1776819,-63
1776838,-819
1776881,-659
1776901,52
1776923,-221
1776965,-646
1776986,-52
1777027,558
1777069,612
1777075,-354
1777094,-336
1777136,-18
1777157,-204
1777178,-529
1777221,-489
1777241,28
1777263,-110
1777305,-282
1777327,93
1777349,233
1777391,57
1777412,-381
1777434,-320
1777476,-200
1777497,-53
1777518,17
1777561,53
1777583,62
1777604,109
1777647,96
1777667,-153
1777689,-193
1777731,-165
1777752,-268
1777863,-281
1777946,-452
1777991,122
1778002,-552
1778023,-329
1778066,42
1778088,-126
1778109,-338
1778152,-208
1778172,346
1778194,153
1778269,-235
1778277,-167
1778320,-63
1778342,-479
1778364,-744
1778406,-760
1778427,54
1778448,290
1778491,105
1778511,-413
1778533,-125
1778575,336
1778596,337
1778617,-15
1778660,-207
1778665,-168
1778683,-34
1778704,72
1778747,134
1778767,109
1778789,-43
1778831,-197
1778852,-88
1778875,64
1779016,87
1779062,-331
1779105,93
1779124,-467
1779167,-585
1779188,-63
1779209,82
1779251,-74
1779273,-573
1779295,-452
1779337,-134
1779358,49
1779379,-164
1779422,-319
1779442,-123
1779838,-32
1780140,363
1780304,-28
1780389,492
1780434,269
1780453,-352
1780496,-682
1780518,-337
1780540,-108
1780582,-107
1780603,-389
1780624,-449
1780666,-417
1780687,-157
1780709,-58
1780751,-115
1780773,-466
1780795,-448
1780837,-273
1780858,-142
1780879,-247
1780922,-270
1780942,-51
1780964,-112
1781006,-279
1781011,-372
1781028,-293
1781049,-168
1781092,-177
1781097,-309
1781115,-378
1781137,-269
1781277,-70
1781323,283
1781367,425
1781386,180
1781428,-51
1781467,-88
1781472,-130
1781514,-270
1781535,-50
1781556,238
1781599,220
1781619,-398
1781641,-225
1781684,227
1781704,96
1781726,-437
1781768,-658
1781773,-417
1781791,-37
1781812,126
1781854,45
1781859,-76
1781877,-154
1781898,-224
1781938,-269
1781944,-189
1781964,-3
1781985,68
1782025,-118
1782030,-413
1782050,-501
1782071,-257
1782111,123
1782116,393
1782136,477
1782157,431
1782197,348
1782202,271
1782222,233
1782242,306
1782282,420
1782287,409
1782307,224
1782419,57
1782529,776
1782572,865
1782656,212
1782699,342
1782740,189
1782745,390
1782785,298
1782790,131
1782809,61
1782830,72
1782870,1
1782875,-166
1782895,-227
1782916,-71
1782956,84
1782961,-60
1782981,-442
1783002,-650
1783042,-477
1783047,-185
1783067,-187
1783089,-525
1783128,-792
1783133,-618
1783153,-115
1783175,219
1783215,42
1783220,-441
1783240,-718
1783261,-515
1783301,-99
1783306,36
1783326,-288
1783347,-722
1783387,-759
1783392,-325
1783412,162
1783434,265
1783605,9
1783684,-255
1783726,-146
1783745,-316
1783766,-398
1783806,-335
1783811,-210
1783831,-145
1783853,-108
1783893,90
1783898,601
1783916,1334
1783938,2023
1783978,2495
1783983,2811
1784003,3206
1784024,3854
1784065,4661
1784070,5354
1784088,5772
1784110,6049
1784151,6441
1784156,6949
1784175,7304
1784196,7252
1784239,6858
1784259,5969
1784281,5398
1784323,4460
1784328,3256
1784345,2140
1784367,1366
1784409,841
1784431,-391
1784453,-1038
1784495,-1389
1784516,-1321
1784554,-1415
1784596,-1617
1784602,-1498
1784622,-1144
1784764,-926
1784810,-1218
1784854,-1650
1784874,-1648
1784917,-1615
1784936,-1229
1784958,-1095
1785001,-1155
1785022,-1372
1785043,-1276
1785086,-1194
1785107,-1330
1785128,-1269
1785171,-1049
1785191,-924
1785214,-1015
1785256,-871
1785277,-265
1785299,-482
1785341,-977
1785362,-1103
1785383,-712
1785426,-576
1785446,-1347
1785468,-1561
1785510,-1332
1785531,-414
1785553,-408
1785595,-723
1785617,-923
1785639,-575
1785714,-364
1785722,-1121
1785765,-1010
1785785,-828
1785897,-926
1785980,-267
1786025,416
1786036,65
1786057,-34
1786100,6
1786120,247
1786142,338
1786185,264
1786205,-330
1786227,-327
1786269,16
1786291,292
1786311,-7
1786354,-108
1786359,199
1786377,662
1786399,877
1786442,757
1786462,459
1786484,506
1786527,576
1786547,585
1786569,444
1786612,250
1786632,476
1786654,826
1786697,936
1786717,669
1786739,994
1786782,1525
1786802,1354
1786824,842
1786867,697
1786886,1347
1786924,1340
1787066,1025
1787113,1559
1787157,1438
1787202,1372
1787221,848
1787242,1103
1787286,1394
1787306,918
1787328,500
1787371,443
1787391,988
1787413,936
1787456,647
1787476,527
1787498,649
1787541,503
1787562,-208
1787583,-155
1787626,30
1787646,-642
1787668,-1120
1787711,-1068
1787732,-379
1787753,-690
1787796,-1218
1787817,-1203
1787837,-1000
1787880,-1200
1787901,-1996
1787922,-1883
1787966,-1575
1787986,-1628
1788008,-1870
1788051,-1867
1788072,-1443
1788092,-1648
1788267,-2126
1788353,-1823
1788398,-2013
1788404,-1691
1788426,-1530
1788469,-1619
1788490,-2119
1788511,-2329
1788554,-2422
1788575,-1913
1788597,-1553
1788639,-1480
1788659,-1887
1788680,-1730
1788723,-1326
1788744,-1273
1788766,-1676
1788809,-1903
1788829,-1618
1788851,-1655
1788894,-1860
1788915,-1745
1788936,-1452
1788979,-1314
1789000,-1364
1789022,-1283
1789065,-1220
1789085,-1513
1789107,-1596
1789150,-1422
1789169,-782
1789190,-720
1789233,-874
1789255,-1031
1789512,-856
1789637,-938
1789721,-982
1789766,-1242
1789772,-1138
1789815,-1239
1789836,-1073
1789858,-854
1789900,-899
1789921,-1338
1789942,-1057
1789985,-530
1790006,-450
1790027,-885
1790070,-1074
1790091,-469
1790112,-280
1790155,-456
1790176,-1139
1790197,-1120
1790240,-861
1790261,-825
1790282,-1210
1790325,-1473
1790346,-1020
1790367,-817
1790410,-888
1790431,-988
1790452,-813
1790495,-737
1790516,-1060
1790537,-1112
1790678,-1038
1790725,-821
1790769,-719
1790808,-467
1790850,-541
1790872,-672
1790914,-576
1790935,-812
1790956,-889
1790999,-808
1791020,-791
1791041,-898
1791084,-836
1791105,-439
1791126,-536
1791169,-719
1791190,-438
1791213,-239
1791255,-322
1791276,-785
1791297,-772
1791340,-701
1791361,-862
1791382,-996
1791425,-1081
1791446,-1105
1791467,-1056
1791510,-1001
1791531,-1086
1791552,-985
1791595,-637
1791616,-97
1791637,-333
1791680,-668
1791700,-625
1791812,-559
1791895,-1061
1791940,-657
1791951,-413
1791972,-334
1792048,-327
1792056,-917
1792099,-946
1792119,-566
1792141,-571
1792184,-712
1792204,-646
1792226,-459
1792269,-387
1792289,-497
1792312,-577
1792355,-730
1792375,-1049
1792397,-1008
1792440,-925
1792461,-908
1792482,-886
1792525,-870
1792545,-966
1792567,-887
1792610,-700
1792630,-844
1792652,-1064
1792695,-1037
1792715,-723
1792737,-871
1792780,-1018
1792800,-681
1792822,-684
1792963,-958
1793009,-798
1793053,-486
1793072,-962
1793115,-970
1793136,-760
1793157,-793
1793233,-800
1793241,-392
1793284,-501
1793305,-819
1793326,-754
1793369,-591
1793389,-648
1793490,-901
1793535,-403
1793579,-958
1793623,-680
1793640,-684
1793661,-935
1793704,-1069
1793725,-722
1793746,-612
1793789,-706
1793811,-780
1793833,-543
1793875,-301
1793896,-425
1793917,-565
1793960,-527
1793981,-260
1794092,-411
1794175,-478
1794220,-475
1794231,-293
1794252,-92
1794295,124
1794315,-81
1794337,-374
1794379,-457
1794400,-340
1794421,-667
1794464,-1125
1794503,-1179
1794508,-907
1794550,-807
1794571,-878
1794593,-753
1794635,-605
1794656,-711
1794677,-833
1794720,-925
1794741,-1071
1794762,-1052
1794805,-934
1794826,-716
1794847,-669
1794890,-549
1794911,-230
1794932,-256
1794975,-392
1794995,-513
1795017,-536
1795060,-557
1795080,-299
1795102,-78
1795243,-74
1795288,-337
1795329,-850
1795335,-125
1795353,-255
1795393,-694
1795398,-883
1795418,-599
1795439,-212
1795479,-220
1795484,-575
1795504,-810
1795525,-678
1795565,-422
1795960,-433
1796152,277
1796232,-666
1796372,601
1796451,-186
1796492,-571
1796498,-316
1796519,-82
1796559,127
1796564,126
1796584,-169
1796605,-578
1796645,-764
1796650,-659
1796670,-550
1796690,-715
1796730,-1093
1796735,-1323
1796755,-1206
1796777,-911
1796816,-781
1796821,-933
1796841,-1140
1796863,-1157
1796902,-983
1796907,-837
1796927,-884
1796949,-1097
1796989,-1287
1796994,-1292
1797014,-1119
1797035,-907
1797075,-818
1797080,-899
1797100,-1014
1797122,-997
1797194,-808
1797204,-679
1797244,-775
1797249,-723
1797269,-572
1797291,-437
1797330,-385
1797335,-414
1797355,-495
1797377,-573
1797515,-510
1797558,670
1797598,2065
1797607,3212
1797629,3557
1797669,3918
1797674,4322
1797693,4773
1797714,5268
1797755,5773
1797760,6137
1797779,6211
1797801,6019
1797842,5755
1797847,5575
1797865,5423
1797887,5044
1797929,4252
1797950,1743
1797971,620
1798013,-120
1798018,-623
1798036,-1192
1798058,-1926
1798099,-2596
1798120,-2502
1798142,-1980
1798216,-1678
1798226,-1622
1798268,-1359
1798289,-1312
1798311,-1448
1798353,-1402
1798358,-1159
1798376,-942
1798398,-952
1798440,-1130
1798461,-1239
1798482,-1187
1798524,-1291
1798529,-1547
1798547,-1767
1798654,-1799
1798735,-1745
1798779,-1698
1798797,-1400
1798818,-1383
1798860,-1319
1798865,-1078
1798884,-795
1798905,-690
1798947,-819
1798969,-1001
1798989,-883
1799031,-820
1799036,-967
1799054,-1274
1799076,-1565
1799118,-1641
1799140,-1054
1799162,-710
1799236,-591
1799245,-933
1799287,-608
1799309,-34
1799330,-313
1799372,-819
1799393,-903
1799415,-378
1799457,-9
1799479,-534
1799501,-873
1799543,-849
1799563,-365
1799585,-383
1799627,-575
1799648,-844
1799671,-768
1799811,-548
1799857,236
1799901,-36
1799920,207
1799962,197
1799984,-199
1800004,-25
1800047,373
1800052,581
1800070,403
1800092,104
1800134,101
1800155,698
1800176,581
1800219,230
1800239,417
1800261,831
1800303,940
1800326,441
1800347,408
1800390,550
1800428,689
1800433,715
1800476,792
1800495,901
1800516,981
1800559,1161
1800580,1356
1800601,1216
1800644,1050
1800665,919
1800686,805
1800729,656
1800750,771
1800771,949
1800814,1021
1800835,1061
1800946,1200
1801030,1077
1801074,483
1801085,308
1801107,180
1801149,-75
1801170,-636
1801191,-750
1801234,-783
1801255,-973
1801276,-1130
1801319,-1258
1801340,-1275
1801361,-1056
1801404,-820
1801426,-1264
1801447,-1700
1801490,-1708
1801511,-932
1801532,-1273
1801575,-2054
1801613,-2077
1801618,-1390
1801661,-1243
1801680,-2190
1801702,-1984
1801745,-1431
1801765,-1718
1801787,-2132
1801830,-1990
1801850,-1458
1801872,-1866
1801915,-2219
1801936,-1591
1801957,-1484
1802098,-1878
1802145,-2284
1802189,-1163
1802208,-1696
1802250,-1812
1802271,-1163
1802293,-1275
1802335,-1751
1802356,-1842
1802378,-1312
1802420,-1034
1802441,-1752
1802463,-1909
1802505,-1594
1802526,-1231
1802548,-1696
1802590,-2104
1802611,-1507
1802633,-1133
1802675,-1182
1802714,-1277
1802719,-948
1802762,-845
1802781,-1720
1802803,-1790
1802845,-1431
1802866,-1383
1802887,-1728
1802930,-1659
1802951,-751
1802972,-773
1803015,-977
1803035,-695
1803057,-681
1803100,-1067
1803120,-1493
1803234,-1134
1803317,-1016
1803361,-881
1803370,-1414
1803392,-1633
1803435,-1415
1803455,-696
1803477,-834
1803519,-1071
1803524,-1070
1803543,-850
1803563,-711
1803605,-817
1803610,-952
1803629,-882
1803650,-685
1803693,-640
1803713,-1229
1803735,-1410
1803778,-1349
1803816,-1062
1803821,-1031
1803864,-1015
1803883,-904
1803905,-825
1803947,-751
1803968,-820
1803989,-948
1804032,-1016
1804054,-988
1804074,-1133
1804117,-1341
1804122,-1365
1804139,-1079
1804160,-729
1804203,-693
1804225,-1475
1804423,-1484
1804546,-452
1804592,-1044
1804635,-360
1804641,-71
1804661,-597
1804703,-881
1804724,-5
1804747,164
1804789,-253
1804810,-981
1804831,-693
1804874,-354
1804895,-471
1804916,-650
1804959,-708
1804979,-548
1805001,-425
1805043,-406
1805082,-908
1805087,-996
1805129,-789
1805150,-749
1805172,-1095
1805214,-1111
1805235,-72
1805256,-137
1805299,-763
1805319,-810
1805341,-15
1805383,338
1805406,-777
1805427,-918
1805568,-442
1805614,-315
1805658,-461
1805677,-63
1805720,-1
1805740,-668
1805761,-881
1805804,-815
1805825,-657
1805846,-755
1805889,-787
1805911,-453
1805932,-335
1805975,-326
1805996,-380
1806017,-416
1806060,-513
1806080,-747
1806102,-770
1806144,-624
1806165,-5
1806186,90
1806229,-89
1806266,-282
1806272,156
1806315,268
1806335,-724
1806357,-888
1806399,-476
1806420,-132
1806441,-644
1806484,-887
1806506,85
1806528,193
1806570,-259
1806591,-707
1806702,-340
1806785,-537
1806830,-387
1806841,-157
1806862,-79
1806904,-58
1806925,-81
1806948,-59
1806990,-38
1807011,-255
1807032,-473
1807075,-582
1807096,-379
1807117,-385
1807159,-510
1807180,-179
1807202,328
1807244,636
1807266,199
1807288,-38
1807330,-32
1807351,-55
1807372,-342
1807415,-606
1807435,-606
1807474,-569
1807516,-591
1807522,-377
1807542,-121
1807585,-19
1807607,-421
1807628,-438
1807671,-148
1807691,78
1807713,-352
1807854,-703
1807900,-160
1807944,197
1807962,-200
1808005,-39
1808027,55
1808048,-285
1808091,-497
1808112,104
1808133,426
1808176,434
1808196,121
1808218,170
1808260,274
1808281,377
1808302,486
1808345,575
1808367,244
1808387,81
1808429,235
1808434,601
1808453,803
1808474,608
1808516,219
1808537,217
1808559,526
1808601,660
1808622,378
1808660,258
1808702,120
1808708,-389
1808729,-462
1808771,-312
1808792,-164
1808814,-365
1808855,-466
1808860,-305
1808878,17
1808991,199
1809070,-572
1809112,-444
1809129,-458
1809151,-588
1809191,-487
1809196,-145
1809214,133
1809236,52
1809275,-340
1809281,-676
1809301,-663
1809322,-368
1809362,-136
1809367,-221
1809387,-546
1809409,-804
1809449,-770
1809454,-472
1809472,-129
1809494,41
1809534,24
1809539,-78
1809560,-164
1809581,-192
1809621,-167
1809626,-141
1809644,-186
1809682,-342
1809722,-512
1809730,-396
1809752,-190
1809792,-60
1809797,70
1809817,408
1809838,1019
1809878,1702
1809884,2200
1809902,2523
1809924,2920
1809965,3562
1809970,4361
1809988,5060
1810010,5541
1810150,5902
1810196,6704
1810241,4489
1810260,3072
1810303,2388
1810323,232
1810345,-746
1810388,-1129
1810408,-1029
1810430,-1432
1810473,-2027
1810494,-1911
1810515,-1303
1810558,-962
1810578,-1186
1810600,-1159
1810643,-915
1810663,-487
1810685,-495
1810727,-689
1812446,-1183
1813295,866
1813806,754
1814054,-1403
1814217,-965
1814264,-1320
1814308,-1997
1814351,-1380
1814365,-1303
1814387,-1232
1814430,-1227
1814450,-1391
1814472,-1315
1814515,-1196
1814535,-1502
1814557,-1760
1814600,-1730
1814620,-976
1814642,-761
1814685,-847
1814705,-1186
1814727,-1088
1814769,-830
1814790,-610
1814813,-795
1814954,-1024
1815001,-1229
1815063,-1463
1815108,-1145
1815152,-1205
1815195,-1050
1815210,-894
1815231,-905
1815274,-843
1815294,-659
1816947,-808
1817755,-632
1818260,-950
1818506,-1148
1818632,-604
1818715,-737
1818760,-268
1818767,-654
1818810,-614
1818832,-317
1818854,-569
1818896,-993
1818917,-1327
1818939,-1169
1818981,-985
1819002,-948
1819024,-1098
1819066,-1119
1819087,-648
1819109,-565
1819151,-703
1819172,-628
1819194,-413
1819236,-475
1819257,-1033
1819278,-790
1819419,-344
1819465,-235
1819509,-887
1819529,-68
1819571,-68
1819592,-823
1819613,-913
1819656,-862
1819676,-1004
1819698,-1005
1821565,-862
1822430,-157
1822942,-699
1823173,-276
1823291,6531
1823335,7322
1823378,4228
1823398,2896
1823441,1985
1823461,-409
1823483,-1291
1823525,-1767
1823546,-2137
1823567,-2359
1823610,-2493
1823615,-2344
1823632,-1918
1823653,-1485
1823696,-1341
1823717,-1685
1823739,-1696
1823782,-1589
1823802,-1691
1823824,-1867
1823867,-1972
1823888,-1866
1823910,-1643
1823953,-1401
1824064,-1637
1824110,-1999
1824154,-2171
1824160,-1566
1824203,-1410
1824223,-1216
1824245,-914
1825937,-739
1826804,594
1827350,-1636
1827600,-2177
1827726,-2140
1827810,-1798
1827855,-1393
1827863,-2065
1827906,-2031
1827926,-1363
1827948,-1312
1827991,-1515
1828011,-1579
1828033,-1376
1828076,-1317
1828096,-1611
1828118,-1573
1828161,-1399
1828181,-1348
1828203,-1365
1828246,-1219
1828266,-993
1828288,-1165
1828331,-1348
1828351,-1371
1828470,-1473
1828552,-1157
1828597,-676
1828603,-678
1828623,-856
1828666,-864
1828686,-603
1828708,-521
1828750,-472
1828771,-706
1830414,-1027
1831221,-824
1831725,-592
1831972,-707
1832097,-610
1832180,-399
1832225,280
1832245,-143
1832287,-34
1832292,-148
1832310,-405
1832332,-471
1832375,-194
1832395,277
1832417,39
1832459,-180
1832480,347
1832501,606
1832544,415
1832565,-555
1832586,-613
1832629,-364
1832650,-233
1832671,-478
1832714,-591
1832734,-29
1832848,272
1832931,389
1832976,-676
1832985,-75
1833006,85
1833049,-247
1833070,-860
1833091,-371
1833134,346
1833155,510
1833176,93
1833219,-73
1834771,341
1835511,-460
1835949,866
1836148,3150
1836288,-2400
1836369,-1144
1836415,-1199
1836457,-995
1836468,-892
1836510,-1051
1836531,-1021
1836553,-782
1836594,-628
1836600,-687
1836618,-920
1836639,-1161
1836681,-1241
1836702,-939
1836724,-794
1836765,-738
1836771,-643
1836789,-403
1836810,-94
1836852,54
1836857,-94
1836875,-354
1836897,-418
1836938,-242
1836961,-418
1837074,-932
1837155,100
1837199,270
1837210,-24
1837231,-198
1837272,-155
1837277,-37
1837296,29
1837341,63
1837383,280
1837402,-58
1837443,-350
1837448,-438
1837467,-291
1837488,-95
1837530,-60
1837535,-220
1837553,-452
1837574,-517
1837616,-235
1837637,875
1837659,1003
1837700,675
1837705,239
1837724,106
1837745,360
1837787,721
1837808,763
1837829,552
1837871,410
1837876,412
1837895,561
1837916,787
1837958,936
1837979,660
1838001,552
1838043,725
1838048,1052
1838065,1247
1838086,1167
1838227,1003
1838273,687
1838317,876
1838338,1104
1838380,1099
1838401,1246
1838446,1463
1838490,1529
1838506,1155
1838548,1121
1838553,1153
1838570,1190
1838592,1238
1838634,1336
1838656,1431
1838678,1347
1838720,1301
1838741,1414
1838763,1365
1838805,1247
1838826,1475
1838848,1691
1838890,1698
1838911,1581
1838933,1783
1838975,1881
1838996,1170
1839017,1010
1839060,1255
1839081,1113
1839102,367
1839145,-119
1839165,504
1839187,639
1839229,288
1839234,-115
1839252,-175
1839362,46
1839444,-30
1839488,-1027
1839502,-1137
1839524,-1264
1839566,-1309
1839612,-1216
1839655,-1262
1839671,-774
1839693,-589
1839734,-738
1839739,-1075
1839758,-1232
1839778,-1025
1839820,-653
1839825,-460
1839843,-566
1839865,-772
1839907,-834
