timestamp,ECG_Raw
3288153,-2308
3288253,-1802
3288352,-1445
3288404,-679
3288418,-1259
3288468,-888
3288480,-863
3288502,-1060
3288552,-1039
3288566,-654
3288588,-367
3288638,-18
3288650,-128
3288672,-337
3288722,-86
3288736,725
3288757,366
3288807,-169
3288822,39
3288843,326
3288893,228
3288906,49
3288927,415
3289076,598
3289130,-906
3289181,-665
3289233,-559
3289241,-592
3289262,-268
3289313,56
3289325,138
3289347,-49
3289397,-164
3289411,-18
3289432,175
3289483,394
3289495,843
3289541,1145
3289592,1513
3289602,1545
3289652,1587
3289665,1390
3289686,1289
3289737,1356
3289750,1118
3289771,775
3289821,638
3289834,888
3289855,855
3289904,719
3289919,782
3289940,1026
3289990,1270
3290004,1510
3290026,1555
3290075,1453
3290089,588
3290208,342
3290302,24
3290353,553
3290361,553
3290409,509
3290423,244
3290445,64
3290493,0
3290509,42
3290530,-23
3290578,-184
3290594,-428
3290616,-318
3290664,-142
3290678,-392
3290700,-666
3290748,-792
3290764,-655
3290820,-476
3290868,-568
3290918,-1126
3290932,-918
3290954,-1114
3291001,-1296
3291017,-1336
3291039,-1309
3291086,-1201
3291102,-859
3291123,-830
3291170,-878
3291188,-872
3291209,-814
3291353,-831
3291403,-414
3291449,-968
3291459,-1187
3291504,-888
3291522,-1053
3291543,-1489
3291588,-1665
3291608,-1343
3291629,-1179
3291675,-999
3291692,-821
3291714,-909
3291758,-882
3291778,-124
3291799,218
3291844,219
3291863,-413
3291885,-509
3291929,-434
3291947,-631
3291968,-803
3292045,-849
3292054,-1164
3292098,-1057
3292117,-640
3292139,-597
3292183,-592
3292202,-557
3292223,-564
3292267,-589
3292286,-659
3292308,-591
3292351,-494
3292372,-850
3292487,-1249
3292571,-1216
3292617,-979
3292623,-937
3292643,-1233
3292686,-1251
3292706,-688
3292728,-723
3292771,-975
3292791,-1140
3292813,-932
3292856,-752
3292876,-840
3292898,-885
3292941,-901
3292962,-1163
3292983,-1145
3293025,-951
3293030,-962
3293047,-1201
3293069,-1573
3293111,-1593
3293149,-1298
3293155,-921
3293196,-1173
3293201,-1433
3293220,-1325
3293240,-1114
3293281,-1010
3293286,-1220
3293305,-1395
3293326,-1424
3293368,-1282
3293373,-1318
3293391,-1497
3293413,-1710
3293454,-1583
3293459,-1292
3293478,-1024
3293498,-1103
3293637,-1282
3293682,-1300
3293723,-1156
3293729,-1211
3293749,-1374
3293790,-1397
3293795,-1379
3293814,-1305
3293835,-1373
3293876,-1426
3293881,-1533
3293899,-1608
3293921,-1808
3293962,-1920
3293967,-1965
3293987,-1852
3294007,-1857
3294080,-1942
3294092,-1624
3294132,-1549
3294137,-1895
3294156,-2245
3294178,-2347
3294218,-2134
3294223,-2156
3294242,-2491
3294263,-2967
3294304,-2996
3294309,-2658
3294329,-2262
3294350,-2283
3294390,-2499
3294395,-2684
3294414,-2608
3294435,-2592
3294476,-2715
3294481,-2982
3294501,-2978
3294523,-2734
3294563,-2382
3294568,-2276
3294587,-2233
3294608,-2069
3294649,-1501
3294654,-915
3294672,-628
3294782,-914
3294860,-981
3294902,533
3294923,1364
3294944,1600
3295017,1871
3295029,1241
3295069,757
3295074,323
3295092,26
3295114,-387
3295153,-883
3295158,-1567
3295178,-2178
3295200,-2674
3295240,-2896
3295245,-3120
3295266,-3428
3295286,-3919
3295326,-4222
3295331,-4226
3295351,-3895
3295373,-3676
3295413,-3628
3295419,-3741
3295437,-3669
3295459,-3488
3295499,-3261
3295504,-3214
3295523,-3185
3295544,-3247
3295585,-3297
3295590,-3432
3295609,-3391
3295630,-3196
3295670,-2894
3295676,-2866
3295696,-3005
3295717,-3103
3295758,-2832
3295796,-2501
3295802,-2587
3295941,-2740
3295984,-3043
3296025,-3202
3296031,-3547
3296053,-3516
3296093,-3451
3296099,-3452
3296117,-3226
3296139,-2925
3296179,-2742
3296184,-2942
3296203,-3072
3296224,-2847
3296265,-2305
3296270,-2140
3296290,-2520
3296310,-3119
3296350,-3195
3296356,-2865
3296376,-2618
3296397,-2955
3296438,-3456
3296443,-3680
3296462,-3402
3296483,-3132
3296524,-3053
3296529,-3147
3296547,-3042
3296569,-2861
3296609,-2647
3296615,-2511
3296633,-2204
3296688,-1856
3296729,-1855
3296740,-2214
3296780,-1912
3296785,-1730
3296804,-1879
3296825,-2363
3296866,-2675
3296871,-2650
3296889,-2309
3296911,-2103
3296951,-2107
3296957,-2334
3296975,-2411
3297085,-2347
3297163,-2233
3297205,-1239
3297226,-999
3297248,-992
3297288,-1096
3297293,-1255
3297311,-1223
3297333,-1251
3297373,-1470
3297378,-1938
3297399,-2162
3297419,-2005
3297459,-1590
3297464,-1439
3297484,-1568
3297506,-1795
3297546,-1707
3297551,-1467
3297569,-1231
3297591,-1218
3297664,-1153
3297676,-1127
3297716,-1333
3297721,-1299
3297740,-816
3297761,-413
3297801,-441
3297806,-958
3297826,-1278
3297848,-1091
3297888,-524
3297893,-350
3297912,-719
3297933,-1310
3297973,-1438
3297978,-1207
3297999,-962
3298020,-1129
3298060,-1390
3298065,-1493
3298084,-1249
3298105,-991
3298244,-780
3298287,-898
3298328,-470
3298336,-878
3298357,-947
3298397,-675
3298402,-430
3298422,-326
3298444,-416
3298483,-360
3298489,-177
3298507,132
3298528,283
3298601,352
3298613,483
3298653,511
3298658,285
3298678,86
3298699,103
3298739,523
3298744,892
3298764,917
3298786,470
3298826,158
3298831,285
3298851,758
3298949,867
3298991,-84
3299032,188
3299039,244
3299079,641
3299084,859
3299104,830
3299124,668
3299163,802
3299169,1087
3299189,1301
3299210,1137
3299250,901
3299255,847
3299275,1214
3299384,1674
3299461,1847
3299467,1542
3299507,1222
3299526,1080
3299548,1225
3299588,1375
3299593,1374
3299613,1443
3299633,1535
3299673,1672
3299711,1632
3299718,1418
3299758,1444
3299763,1411
3299783,1322
3299805,1096
3299845,1044
3299850,1103
3299868,1238
3299890,1149
3299930,958
3299935,758
3299955,817
3299976,950
3300016,1106
3300021,1109
3300041,1116
3300063,1046
3300103,992
3300108,892
3300128,948
3300149,1011
3300189,1065
3300194,880
3300213,689
3300234,605
3300274,765
3300279,836
3300299,776
3300320,599
3300360,694
3300365,930
3300385,1097
3300407,841
3300545,464
3300588,66
3300628,502
3300637,577
3300675,291
3300714,152
3300722,420
3300743,528
3300783,498
3300788,275
3300808,186
3300830,283
3300869,593
3300874,765
3300894,708
3300916,389
3300955,220
3300960,260
3300980,529
3301002,621
3301041,439
3301047,14
3301066,-183
3301088,-110
3301128,133
3301133,105
3301153,-97
3301174,-266
3301213,-68
3301219,161
3301238,125
3301260,-367
3301300,-785
3301305,-834
3301325,-501
3301346,-386
3301386,-650
3301391,-1099
3301411,-1156
3301431,-890
3301470,-585
3301476,-683
3301514,-949
3301519,-1132
3301558,-976
3301563,-868
3301582,-1020
3301690,-1545
3301767,-1728
3301774,-2039
3301814,-1785
3301833,-1421
3301854,-1733
3301894,-2131
3301899,-2415
3301919,-2407
3301941,-2472
3301981,-2703
3301986,-3089
3302004,-3214
3302026,-3119
3302066,-2939
3302071,-3016
3302091,-3104
3302113,-2999
3302153,-2527
3302158,-2132
3302178,-2086
3302198,-2471
3302238,-2796
3302243,-2911
3302263,-2772
3302285,-2735
3302325,-2810
3302330,-3013
3302350,-3076
3302388,-3074
3302428,-2919
3302434,-2532
3302456,-2475
3302495,-2539
3302501,-2777
3302521,-2873
3302542,-2779
3302582,-2432
3302587,-2135
3302607,-1836
3302627,-1493
3302667,-844
3302672,-120
3302692,461
3302714,526
3302852,335
3302895,-1199
3302935,-2457
3302943,-3098
3302965,-3861
3303004,-4791
3303010,-5636
3303030,-5964
3303051,-5932
3303091,-5747
3303096,-5806
3303116,-6004
3303138,-6211
3303178,-6123
3303183,-5932
3303202,-5708
3303224,-5669
3303264,-5701
3303269,-5924
3303307,-6221
3303312,-6549
3303353,-6588
3303374,-6171
3303395,-6175
3303436,-6268
3303441,-6266
3303459,-5930
3303481,-5625
3303522,-5546
3303527,-5763
3303545,-5860
3303567,-5771
3303607,-5522
3303613,-5470
3303631,-5520
3303653,-5610
3303693,-5555
3303698,-5556
3303717,-5538
3303739,-5503
3303779,-5258
3303784,-5042
3303803,-4933
3303824,-5045
3303865,-5044
3303870,-4944
3303889,-4799
3303997,-4915
3304076,-5703
3304082,-5329
3304122,-5132
3304140,-5614
3304162,-5879
3304572,-5864
3304730,-5343
3304810,-5686
3304852,-4576
3304893,-4581
3304906,-4439
3304947,-4417
3304952,-4513
3304970,-4539
3304992,-4575
3305131,-4510
3305175,-4321
3305215,-4247
3305221,-4504
3305243,-4567
3305283,-4297
3305289,-3945
3305307,-3723
3305329,-3921
3305369,-4245
3305374,-4444
3305394,-4248
3305416,-4030
3305456,-4044
3305462,-4437
3305480,-4755
3305502,-4759
3305542,-4345
3305547,-4000
3305566,-3911
3305587,-4175
3305628,-4396
3305633,-4492
3305653,-4409
3305691,-4452
3305731,-4578
3305737,-4917
3305759,-4872
3305799,-4597
3305805,-4352
3305823,-4158
3305845,-4181
3305885,-4185
3305890,-4159
3305909,-3994
3305931,-3955
3305971,-4051
3305976,-4345
3305995,-4547
3306016,-4654
3306057,-4577
3306062,-4491
3306082,-4330
3306104,-4249
3306144,-4222
3306149,-4407
3306168,-4595
3306276,-4761
3306353,-4961
3306360,-4812
3306400,-4532
3306419,-4375
3306441,-4592
3306481,-4744
3306486,-4788
3306505,-4615
3306526,-4528
3306566,-4586
3306604,-4887
3306612,-5158
3306652,-4882
3306657,-4621
3306676,-4581
3306697,-4942
3306737,-5288
3306742,-5336
3306761,-4919
3306783,-4594
3306823,-4700
3306828,-5292
3306848,-5683
3306870,-5544
3306910,-4956
3306915,-4649
3306933,-4766
3306955,-5049
3306995,-4938
3307000,-4698
3307020,-4666
3307042,-5083
3307082,-5395
3307087,-5270
3307106,-4796
3307127,-4691
3307167,-5026
3307173,-5425
3307193,-5190
3307213,-4518
3307253,-3943
3307258,-4051
3307278,-4521
3307300,-4862
3307438,-4653
3307514,-4205
3307556,-2885
3307597,-2913
3307613,-2863
3307634,-2881
3307674,-2778
3307679,-2738
3307698,-2738
3307720,-2855
3307759,-2816
3307765,-2679
3307785,-2487
3307806,-2556
3307846,-2707
3307851,-2800
3307870,-2618
3307892,-2436
3307931,-2292
3307937,-2222
3307957,-1890
3307978,-1391
3308018,-886
3308023,-757
3308042,-862
3308063,-1024
3308103,-911
3308108,-727
3308128,-616
3308150,-843
3308189,-1154
3308195,-1399
3308215,-1343
3308236,-1192
3308276,-1029
3308314,-1064
3308320,-1080
3308360,-851
3308365,-590
3308385,-321
3308407,-286
3308446,-372
3308451,-554
3308471,-557
3308580,-466
3308657,-953
3308664,-517
3308703,-696
3308722,-549
3308744,-475
3308784,-664
3308789,-1093
3308809,-1278
3308830,-1172
3308870,-881
3308875,-822
3308895,-890
3308917,-972
3308957,-806
3308962,-652
3308980,-638
3309002,-880
3309041,-1030
3309047,-1060
3309067,-947
3309088,-1003
3309128,-1119
3309133,-1225
3309153,-1075
3309175,-889
3309215,-724
3309253,-776
3309260,-917
3309300,-869
3309305,-888
3309323,-871
3309345,-884
3309384,-777
3309390,-661
3309410,-448
3309431,-284
3309471,-116
3309476,-89
3309496,-64
3309517,-102
3309557,-75
3309562,-102
3309582,-44
3309603,18
3309742,184
3309785,245
3309849,70
3309891,475
3309932,218
3309937,553
3309977,862
3309982,673
3310002,244
3310024,-80
3310063,46
3310068,265
3310088,346
3310110,100
3310150,-140
3310155,-224
3310175,30
3310196,374
3310236,676
3310241,581
3310279,235
3310284,-123
3310324,-7
3310346,722
3310367,461
3310407,38
3310412,-14
3310432,635
3310453,1316
3310493,1446
3310498,916
3310517,525
3310538,723
3310578,1435
3310583,1943
3310603,2061
3310625,1933
3310665,2143
3310670,2678
3310690,3411
3310710,3961
3310750,4395
3310755,4623
3310775,4729
3310884,4558
3310962,4032
3310968,1503
3311008,1439
3311026,1078
3311048,157
3311087,-735
3311092,-1092
3311112,-693
3311134,-154
3311174,99
3311179,-84
3311199,-187
3311220,-10
3311293,413
3311304,737
3311344,978
3311349,1036
3311369,735
3311391,140
3311431,-94
3311436,143
3311454,601
3311476,587
3311516,91
3311521,-558
3311541,-754
3311562,-603
3311602,-318
3311607,-281
3311627,-362
3311649,-535
3311688,-605
3311694,-657
3311714,-531
3311735,-347
3311775,-124
3311780,-197
3311798,-472
3311820,-837
3311860,-894
3311865,-667
3311885,-259
3311907,-77
3312045,-91
3312088,27
3312129,312
3312136,177
3312158,261
3312198,662
3312203,1027
3312223,1162
3312261,912
3312301,694
3312307,946
3312328,1074
3312368,1065
3312374,927
3312394,938
3312415,967
3312455,1045
3312460,1059
3312479,1232
3312500,1448
3312540,1659
3312546,1606
3312566,1468
3312587,1317
3312628,1402
3312633,1559
3312651,1742
3312673,1721
3312713,1601
3312718,1380
3312737,1351
3312758,1402
3312799,1454
3312804,1222
3312824,904
3312845,724
3312886,981
3312891,1353
3312909,1580
3312931,1428
3312971,1294
3312976,1361
3312995,1684
3313016,1797
3313057,1623
3313193,1245
3313273,1174
3313315,598
3313330,877
3313351,1201
3313392,1253
3313397,997
3313415,978
3313437,1278
3313477,1667
3313482,1587
3313502,1124
3313524,613
3313564,561
3313569,725
3313587,803
3313609,519
3313649,237
3313654,166
3313674,413
3313696,547
3313735,468
3313740,183
3313760,83
3313782,93
3313822,160
3313827,29
3313845,-76
3313868,-75
3313908,161
3313913,312
3313932,335
3313953,188
3313993,102
3313998,-57
3314018,-279
3314039,-641
3314080,-844
3314085,-919
3314123,-840
3314128,-841
3314168,-767
3314188,-437
3314210,-492
3314349,-752
3314392,-2088
3314433,-1727
3314441,-1493
3314461,-1791
3314501,-1901
3314506,-1822
3314526,-1633
3314548,-1666
3314588,-1772
3314593,-1938
3314612,-1987
3314633,-2074
3314673,-2099
3314678,-2104
3314698,-1925
3314720,-1744
3314760,-1592
3314765,-1620
3314784,-1620
3314806,-1624
3314845,-1487
3314851,-1366
3314871,-1235
3314892,-1247
3314932,-1269
3314938,-1351
3314956,-1288
3314978,-1228
3315018,-1144
3315056,-1239
3315063,-1427
3315103,-1336
3315109,-1282
3315127,-1236
3315149,-1283
3315189,-1186
3315194,-1054
3315214,-912
3315236,-982
3315276,-1071
3315281,-1175
3315299,-1164
3315321,-1237
3315361,-1302
3315366,-1371
3315386,-1273
3315493,-1218
3315571,-1249
3315578,-2156
3315618,-2060
3315637,-1851
3315658,-2072
3315698,-2256
3315704,-2299
3315722,-2063
3315744,-1856
3315784,-1732
3315789,-1845
3315809,-1942
3315831,-1999
3315871,-1815
3315876,-1540
3315894,-1180
3316052,-993
3316130,-1890
3316172,-2471
3316212,-1747
3316228,-1558
3316249,-1468
3316288,-1321
3316294,-1280
3316314,-1234
3316336,-1295
3316375,-1411
3316381,-1688
3316401,-1795
3316421,-1558
3316460,-917
3316466,-516
3316486,-694
3316507,-1390
3316646,-1830
3316689,-2494
3316730,-1466
3316737,-1097
3316759,-1028
3316799,-949
3316804,-1077
3316822,-1187
3316844,-1179
3316884,-939
3316889,-870
3316909,-1028
3316931,-1305
3316971,-1197
3316976,-774
3316996,-300
3317017,-281
3317090,-582
3317101,-1398
3317141,-1656
3317147,-2091
3317165,-2399
3317187,-2541
3317227,-2395
3317232,-2194
3317252,-1919
3317272,-1732
3317312,-1536
3317317,-1451
3317337,-1355
3317359,-1363
3317399,-1366
3317404,-1478
3317424,-1586
3317444,-1763
3317484,-1764
3317489,-1585
3317509,-1101
3317531,-627
3317571,-318
3317576,-427
3317596,-724
3317618,-1029
3317658,-1068
3317663,-1077
3317681,-1198
3317790,-1655
3317867,-1535
3317874,-1414
3317914,-1417
3317933,-1127
3317971,-938
3318011,-728
3318018,-656
3318040,-652
3318080,-414
3318085,-76
3318103,298
3318125,440
3318165,464
3318170,355
3318190,289
3318211,186
3318251,266
3318256,520
3318276,1024
3318298,1426
3318338,1663
3318343,1667
3318362,1766
3318383,1901
3318424,2000
3318429,1767
3318447,1329
3318469,703
3318509,103
3318514,-533
3318534,-964
3318556,-1228
3318596,-1347
3318601,-1740
3318619,-2439
3318641,-3205
3318681,-3374
3318686,-2928
3318706,-2251
3318728,-2077
3318768,-2413
3319241,-2916
3319468,-1719
3319549,-2297
3319591,-1629
3319632,-1186
3319638,-1518
3319677,-1353
3319683,-1045
3319701,-815
3319723,-998
3319762,-1271
3319768,-1346
3319788,-1004
3319809,-676
3319849,-626
3319854,-945
3319874,-1187
3319896,-1217
3319935,-991
3319940,-849
3319959,-784
3319981,-810
3320020,-721
3320025,-681
3320045,-623
3320067,-608
3320106,-441
3320112,-279
3320132,-176
3320153,-282
3320193,-296
3320198,-135
3320218,250
3320239,409
3320377,214
3320421,-423
3320494,-737
3320536,-194
3320551,-190
3320573,-313
3320613,-443
3320618,-538
3320638,-381
3320737,-188
3320778,-132
3320819,747
3320827,954
3320867,845
3320872,792
3320892,902
3320913,880
3320953,737
3320958,493
3320976,447
3320998,474
3321037,505
3321043,314
3321063,134
3321084,98
3321124,415
3321129,778
3321149,1021
3321170,922
3321210,738
3321215,582
3321235,652
3321257,728
3321297,754
3321302,523
3321322,235
3321343,-32
3321383,-54
3321388,10
3321408,166
3321544,213
3321622,-110
3321664,-396
3321678,-452
3321719,-195
3321724,-260
3321742,-553
3321764,-901
3321804,-965
3321809,-916
3321829,-846
3321851,-920
3321891,-913
3321896,-886
3321914,-816
3321936,-930
3321976,-1082
3321981,-1242
3322001,-1246
3322023,-1303
3322063,-1348
3322068,-1409
3322086,-1254
3322108,-1084
3322148,-969
3322153,-1126
3322172,-1330
3322193,-1531
3322233,-1526
3322239,-1492
3322259,-1400
3322280,-1439
3322320,-1543
3322326,-1770
3322344,-1823
3322366,-1608
3322439,-1048
3322450,-865
3322490,-1196
3322495,-1267
3322514,-953
3322536,-655
3322575,-516
3322581,-678
3322688,-893
3322730,-352
3322771,-1067
3322788,-1337
3322828,-943
3322833,-747
3322853,-859
3322875,-1171
3322915,-1165
3322920,-893
3322938,-558
3322960,-581
3323000,-773
3323005,-923
3323025,-745
3323047,-584
3323086,-647
3323092,-1023
3323112,-1210
3323133,-1001
3323173,-445
3323178,-113
3323197,-144
3323218,-451
3323258,-547
3323263,-447
3323283,-253
3323321,-270
3323361,-344
3323369,-462
3323390,-506
3323430,-436
3323435,-318
3323454,-103
3323475,-113
3323515,-306
3323520,-581
3323540,-540
3323562,-316
3323602,-99
3323607,-263
3323627,-579
3323648,-810
3323688,-679
3323693,-476
3323712,-338
3323832,-451
3323909,-773
3323951,-117
3323962,-114
3323984,-46
3324023,128
3324029,159
3324048,70
3324070,-201
3324110,-352
3324115,-369
3324135,-176
3324157,-47
3324196,45
3324201,4
3324221,-1
3324242,-115
3324282,-206
3324287,-295
3324325,-206
3324331,-128
3324371,-96
3324391,-306
3324413,-225
3324453,67
3324458,215
3324478,167
3324499,-77
3324539,-138
3324544,-24
3324564,212
3324585,271
3324625,334
3324630,456
3324650,728
3324670,771
3324710,525
3324715,97
3324735,17
3324757,240
3324796,464
3324801,151
3324821,-455
3324843,-877
3324981,-609
3325025,472
3325065,364
3325073,44
3325094,222
3325134,352
3325139,322
3325159,522
3325180,890
3325220,1131
3325225,761
3325245,141
3325267,-213
3325306,22
3325344,237
3325352,-775
3325391,-1277
3325396,-1184
3325416,-579
3325438,-128
3325478,21
3325483,-65
3325502,-35
3325524,39
3325564,166
3325569,168
3325589,200
3325610,133
3325650,95
3325655,37
3325673,133
3325695,164
3325735,116
3325740,-48
3325760,55
3325781,453
3325821,994
3325826,1176
3325846,1075
3325868,955
3325908,1264
3325913,1725
3325932,1946
3325953,1571
3325993,1022
3325998,662
3326018,705
3326126,708
3326205,1697
3326248,4332
3326267,4507
3326289,4422
3326363,4543
3326373,3614
3326415,2803
3326420,2277
3326437,2138
3326458,1822
3326500,1146
3326505,269
3326524,-141
3326545,-83
3326587,60
3326592,-312
3326610,-940
3326632,-1281
3326673,-842
3326695,179
3326715,-334
3326757,-1083
3326762,-1430
3326780,-1027
3326802,-473
3326843,-292
3326849,-683
3326867,-1058
3326889,-1061
3326930,-609
3326952,-150
3326974,-296
3327015,-286
3327037,-109
3327058,-312
3327100,-542
3327105,-642
3327122,-375
3327144,-48
3327284,191
3327329,160
3327403,164
3327447,15
3327458,307
3327478,190
3327519,68
3327524,-31
3327542,72
3327565,204
3327607,351
3327627,144
3327649,-140
3327690,-281
3327695,-299
3327714,-104
3327735,48
3327776,133
3327782,2
3327800,-126
3327821,-203
3327863,-52
3327868,116
3327886,267
3327907,183
3327949,45
3327954,-121
3327972,-69
3327994,68
3328035,221
3328040,122
3328058,-49
3328080,-161
3328121,53
3328126,360
3328145,599
3328166,532
3328208,452
3328230,773
3328251,894
3328293,817
3328314,500
3328450,507
3328532,560
3328575,-26
3328584,887
3328626,993
3328631,691
3328649,537
3328671,721
3328712,1171
3328718,1310
3328736,1111
3328758,784
3328799,782
3328820,866
3328841,419
3328883,74
3328888,158
3328906,686
3328928,1003
3328969,914
3328974,594
3328993,563
3329014,702
3329056,715
3329061,307
3329078,-61
3329101,-70
3329142,301
3329164,291
3329186,86
3329227,378
3329249,1284
3329271,1101
3329312,788
3329333,693
3329355,484
3329396,56
3329401,-355
3329419,-311
3329457,-77
3329597,86
3329642,-276
3329684,-274
3329692,-608
3329733,-382
3329738,-139
3329756,-122
3329778,-432
3329819,-585
3329824,-480
3329841,-216
3329863,-241
3329904,-428
3329909,-553
3329928,-341
3329949,-124
3329990,-94
3329995,-371
3330014,-579
3330035,-691
3330076,-733
3330081,-959
3330100,-1145
3330122,-1172
3330163,-897
3330168,-677
3330186,-567
3330208,-582
3330249,-426
3330254,-206
3330273,36
3330294,93
3330335,135
3330340,64
3330359,-74
3330380,-368
3330454,-461
3330464,-33
3330505,-481
3330510,-943
3330529,-827
3330550,-363
3330592,-24
3330597,-257
3330615,-609
3330636,-659
3330776,-201
3330821,176
3330863,285
3330869,-32
3330887,-348
3330928,-349
3330933,-104
3330952,228
3330973,222
3331015,-6
3331019,-253
3331038,-185
3331059,0
3331100,173
3331105,110
3331124,7
3331145,-144
3331186,-127
3331191,4
3331209,323
3331231,509
3331272,467
3331277,150
3331296,21
3331317,177
3331358,499
3331363,476
3331382,166
3331403,-147
3331477,2
3331487,282
3331528,-42
3331533,-190
3331551,-50
3331652,11
3331695,154
3331737,88
3331743,434
3331784,649
3331804,199
3331914,-129
3331994,-150
3332037,181
3332053,985
3332075,935
3332116,665
3332121,383
3332140,396
3332161,517
3332202,630
3332207,490
3332226,263
3332247,1
3332288,-84
3332293,-144
3332312,-124
3332333,-147
3332374,-53
3332379,55
3332398,162
3332419,9
3332460,-232
3332465,-388
3332484,-142
3332505,261
3332546,566
3332552,479
3332570,303
3332608,230
3332649,412
3332655,481
3332677,342
3332718,341
3332723,311
3332742,233
3332763,11
3332804,-34
3332809,65
3332828,283
3332849,358
3332891,436
3332896,505
3332914,624
3332936,560
3333075,454
3333120,-169
3333163,411
3333168,434
3333185,167
3333227,155
3333232,288
3333250,456
3333272,377
3333313,160
3333318,-164
3333336,-345
3333358,-427
3333399,-279
3333404,-75
3333423,163
3333444,180
3333486,110
3333491,66
3333509,349
3333531,718
3333572,922
3333594,113
3333632,-224
3333674,-117
3333679,13
3333701,-288
3333742,-364
3333763,436
3333786,651
3333827,508
3333848,-50
3333870,-49
3333911,119
3333916,130
3333934,67
3333956,-54
3333997,20
3334002,212
3334020,530
3334042,728
3334083,879
3334088,987
3334107,1240
3334219,1430
3334300,2247
3334344,4091
3334356,5094
3334378,5273
3334421,5300
3334441,4936
3334463,4414
3334506,3697
3334526,2101
3334548,1416
3334591,814
3334611,-340
3334633,-640
3334675,-668
3334680,-686
3334699,-649
3335083,-578
3335383,-193
3335546,-48
3335630,-239
3335675,-507
3335689,-347
3335710,-151
3335752,134
3335773,141
3335795,-194
3335837,-315
3335842,-68
3335860,520
3335882,921
3335924,958
3335944,413
3335966,398
3336008,611
3336030,682
3336052,550
3336094,549
3336115,583
3336136,480
3336178,447
3336199,540
3336222,509
3336264,431
3336285,280
3336306,297
3336348,391
3336369,532
3336390,639
3336531,822
3336576,887
3336619,444
3336624,463
3336643,380
3336684,258
3336705,429
3336743,766
3336785,1007
3336791,775
3336812,818
3336854,1197
3336859,1502
3336877,1561
3336899,1329
3336940,1189
3336961,1313
3336983,1341
3337024,1383
3337029,1361
3337048,1308
3337070,1020
3337111,725
3337116,577
3337134,820
3337156,1142
3337197,1308
3337202,1121
3337219,953
3337241,945
3337282,1190
3337287,1322
3337306,1293
3337327,1054
3337368,856
3337373,642
3337392,503
3337413,336
3337454,330
3337459,374
3337477,469
3337499,330
3337539,66
3337544,-236
3337564,-245
3337701,-77
3337780,-120
3337822,-419
3337835,-432
3337875,-501
3337880,-524
3337899,-375
3337921,-286
3337961,-228
3337966,-229
3337985,-89
3338006,-5
3338046,1
3338051,-230
3338071,-471
3338093,-673
3338133,-648
3338138,-550
3338158,-408
3338178,-468
3338219,-568
3338224,-626
3338244,-337
3338265,83
3338306,422
3338311,320
3338329,3
3338350,-287
3338391,-237
3338396,-114
3338416,-45
3338437,-175
3338478,-206
3338483,-133
3338501,45
3338523,47
3338563,-15
3338568,-142
3338606,-112
3338611,-86
3338651,-58
3338673,-355
3338695,-550
3338735,-581
3338740,-511
3338844,-279
3338887,253
3338928,290
3338946,52
3338986,198
3338991,227
3339011,67
3339033,-272
3339073,-349
3339078,-172
3339096,111
3339118,121
3339158,19
3339163,-31
3339183,183
3339205,320
3339245,253
3339250,-63
3339269,-208
3339290,-147
3339331,71
3339335,61
3339355,-117
3339377,-442
3339417,-580
3339422,-533
3339441,-227
3339462,72
3339503,294
3339508,258
3339528,181
3339566,134
3339606,295
3339612,441
3339634,197
3339674,-66
3339679,-260
3339699,-212
3339719,-139
3339759,-84
3339764,-177
3339784,-156
3339806,9
3339846,378
3339851,584
3339870,604
3339988,485
3340066,181
3340109,-440
3340120,-1222
3340141,-1263
3340182,-875
3340187,-504
3340206,-343
3340227,-519
3340268,-641
3340273,-528
3340293,-72
3340314,289
3340355,337
3340360,-21
3340378,-278
3340400,-205
3340440,220
3340445,481
3340465,461
3340485,238
3340525,236
3340531,388
3340551,552
3340588,442
3340629,236
3340635,30
3340656,61
3340697,158
3340702,223
3340722,420
3340743,587
3340784,709
3340789,581
3340807,368
3340829,164
3340869,288
3340874,593
3340894,907
3340916,813
3340956,482
3340962,190
3340980,366
3341001,729
3341140,912
3341185,-295
3341226,-708
3341232,-501
3341251,-423
3341292,-325
3341297,-212
3341317,3
3341338,75
3341379,57
3341384,-4
3341402,179
3341425,433
3341466,643
3341471,535
3341489,347
3341511,206
3341551,298
3341556,337
3341594,253
3341599,11
3341640,-49
3341660,333
3341682,408
3341722,358
3341727,220
3341746,271
3341767,377
3341808,470
3341813,263
3341831,-40
3341854,-272
3341895,-114
3341900,224
3341918,614
3341940,773
3341980,948
3341985,1253
3342004,1856
3342026,2429
3342066,2841
3342072,2999
3342090,3214
3342112,3488
3342153,3827
3342158,3915
3342177,3823
3342285,3575
3342365,962
3342409,-980
3342426,-1442
3342525,-1408
3342568,-1037
3342611,-734
3342616,-976
3342658,-1134
3342678,-623
3342716,-426
3342758,-519
3342763,-749
3342785,-415
3342826,-42
3342831,-108
3342849,-494
3342871,-937
3342912,-1026
3342917,-899
3342936,-627
3342957,-454
3342999,-271
3343004,-177
3343022,-89
3343043,-120
3343084,-84
3343090,-35
3343108,92
3343129,82
3343170,16
3343175,-145
3343194,-205
3343215,-293
3343256,-318
3343261,-370
3343280,-287
3343301,-226
3343440,-174
3343485,-187
3343527,-599
3343533,-43
3343553,26
3343593,-219
3343599,-567
3343617,-499
3343638,-160
3343712,98
3343721,-847
3343763,-531
3343768,-151
3343786,-28
3343807,-234
3343848,-287
3343854,-115
3343872,185
3343893,222
3343935,166
3343940,138
3343958,303
3343980,327
3344021,191
3344026,-6
3344044,83
3344065,279
3344106,397
3344111,221
3344130,64
3344151,63
3344192,290
3344197,385
3344216,358
3344237,210
3344278,239
3344283,349
3344302,542
3344323,594
3344364,592
3344369,474
3344388,458
3344409,529
3344450,774
3344455,911
3344474,907
3344584,707
3344664,1127
3344740,895
3344747,1034
3344788,877
3344808,1040
3344830,1205
3344871,1219
3344876,956
3344895,769
3344916,797
3344957,1087
3344963,1229
3344980,1154
3345001,857
3345042,734
3345047,797
3345067,1003
3345087,974
3345128,728
3345133,333
3345152,113
3345173,23
3345214,117
3345219,193
3345238,318
3345259,333
3345301,310
3345306,174
3345324,152
3345346,194
3345387,322
3345392,227
3345410,-27
3345432,-401
3345472,-596
3345478,-707
3345496,-713
3345518,-785
3345558,-782
3345563,-778
3345601,-701
3345606,-704
3345745,-646
3345789,-757
3345829,-850
3345835,-816
3345855,-737
3345895,-642
3345901,-687
3345919,-707
3345940,-733
3345981,-640
3345986,-619
3346006,-622
3346027,-778
3346068,-921
3346073,-1067
3346091,-1027
3346113,-950
3346153,-850
3346158,-959
3346178,-1118
3346200,-1243
3346240,-1096
3346246,-894
3346264,-757
3346286,-904
3346326,-1017
3346331,-970
3346350,-676
3346371,-538
3346411,-653
3346417,-985
3346437,-1043
3346457,-784
3346497,-361
3346535,-319
3346543,-1122
3346583,-1269
3346588,-1114
3346606,-808
3346628,-826
3346668,-1187
3346674,-1768
3346694,-2045
3346714,-1881
3346754,-1362
3346759,-1120
3346779,-1318
3346890,-1774
3346969,-1457
3347011,-1288
3347029,-1609
3347050,-1403
3347091,-1141
3347096,-1258
3347115,-1488
3347136,-1605
3347177,-1423
3347182,-1312
3347201,-1352
3347222,-1553
3347263,-1603
3347268,-1569
3347287,-1417
3347308,-1328
3347349,-1218
3347354,-1285
3347373,-1474
3347394,-1793
3347468,-1911
3347479,-1769
3347521,-1796
3347526,-1815
3347543,-1748
3347564,-1851
3347605,-1958
3347610,-2016
3347629,-1858
3347651,-1774
3347691,-1797
3347697,-1944
3347715,-1872
3347737,-1709
3347778,-1582
3347783,-1701
3347802,-1748
3347823,-1641
3347864,-1372
3347869,-1354
3347888,-1558
3347910,-1882
3348049,-1972
3348094,-2044
3348135,-2290
3348141,-1688
3348160,-1554
3348201,-1717
3348206,-1984
3348225,-1885
3348246,-1604
3348287,-1461
3348292,-1767
3348311,-2099
3348349,-2154
3348390,-1771
3348396,-1612
3348418,-2095
3348458,-2393
3348464,-2333
3348482,-1904
3348504,-1613
3348545,-1595
3348550,-1893
3348568,-2084
3348590,-2060
3348631,-1766
3348636,-1597
3348655,-1635
3348675,-1895
3348715,-1994
3348721,-1975
3348739,-1916
3348761,-2111
3348802,-2317
3348807,-2336
3348827,-1963
3348847,-1648
3348888,-1610
3348893,-1883
3348912,-1930
3348933,-1654
3348974,-1264
3348979,-1335
3348998,-1768
3349019,-2207
3349060,-2184
3349065,-1951
3349669,-1798
3349941,960
3350097,-533
3350179,-2725
3350223,-2321
3350238,-2004
3350259,-1739
3350302,-1605
3350322,-1987
3350344,-2055
3350387,-1778
3350407,-1113
3350429,-1163
3350472,-1388
3350492,-1503
3350514,-1252
3350557,-1056
3350577,-1602
3350599,-1825
3350642,-1660
3350663,-1546
3350684,-1887
3350825,-1960
3350872,-1409
3350916,-1305
3350935,-1393
3350977,-1186
3350998,-1264
3351020,-1229
3351062,-798
3351083,-271
3351105,-715
3351147,-1159
3351168,-817
3351189,-432
3351265,-366
3351273,-1067
3351316,-899
3351336,-849
3351358,-979
3351400,-993
3351423,-1094
3351443,-1299
3351485,-1398
3351508,-1065
3351528,-825
3351570,-741
3351592,-1075
3351614,-1018
3351657,-605
3351677,-98
3351699,-471
3351741,-866
3351762,-552
3351784,-178
3351826,-128
3351847,-792
3351958,-807
3352041,-215
3352085,-214
3352098,376
3352119,85
3352162,-213
3352182,307
3352204,722
3352246,748
3352267,-137
3352288,-277
3352331,-25
3352353,87
3352374,-342
3352416,-660
3352455,-304
3352460,-83
3352502,-97
3352521,-88
3352544,393
3352587,874
3352607,478
3352629,221
3352671,459
3352692,821
3352714,240
3352756,-497
3352761,-1044
3352778,-1104
3352799,-970
3352842,-810
3352864,-993
3352886,-1176
3352929,-1134
3352949,-513
3352969,-247
3353111,-173
3353157,-960
3353201,-1315
3353220,-1239
3353262,-892
3353267,-567
3353284,-373
3353384,-511
3353429,-1165
3353472,-1409
3353516,-1662
3353535,-1037
3353557,-897
3353599,-967
3353604,-1148
3353642,-1058
3353685,-538
3353706,-1002
3353727,-1233
3353770,-1072
3353791,-878
3353812,-1180
3353855,-1302
3353875,-737
3353897,-700
3353939,-962
3353944,-1282
3353963,-1162
3353983,-821
3354025,-574
3354030,-807
3354048,-1155
3354070,-1249
3354112,-820
3354133,-299
3354243,-685
3354325,-499
3354370,-628
3354382,-573
3354404,-769
3354446,-750
3354451,-600
3354470,-362
3354491,-320
3354533,-385
3354554,-583
3354575,-548
3354618,-445
3354638,-624
3354660,-764
3354702,-698
3354740,-593
3354746,-398
3354788,-369
3354809,-395
3354830,-352
3354873,-136
3354895,206
3354916,69
3354958,-166
3354979,-305
3355001,-210
3355043,-193
3355065,-713
3355087,-913
3355129,-864
3355149,-596
3355171,-526
3355213,-491
3355234,-624
3355255,-591
3355396,-345
3355442,90
3355485,-461
3355506,84
3355548,464
3355569,-63
3355590,-459
3355633,-551
3355638,-588
3355656,-613
3355678,-730
3355720,-750
3355741,-789
3355762,-772
3355805,-532
3355825,-149
3355847,-273
3355922,-273
3355932,165
3355974,-233
3355995,-322
3356016,81
3356058,186
3356079,-700
3356101,-617
3356143,-30
3356148,351
3356166,295
3356188,-42
3356230,-75
3356250,453
3356272,407
3356314,187
3356319,-78
3356337,-107
3356359,-61
3356401,23
3356421,-224
3356533,-352
3356615,-138
3356659,-141
3356671,-707
3356694,-572
3356736,-192
3356757,-19
3356778,-127
3356820,-54
3356825,20
3356844,92
3356865,57
3356907,90
3356927,-124
3356949,-395
3356991,-413
3356996,-119
3357014,395
3357052,544
3357094,216
3357100,-675
3357120,-439
3357162,85
3357167,222
3357185,-144
3357207,-763
3357249,-938
3357271,96
3357292,479
3357334,537
3357355,287
3357377,227
3357418,250
3357423,269
3357442,436
3357463,546
3357505,521
3357526,26
3357547,46
3357687,457
3357733,2918
3357776,4175
3357781,4274
3357798,4034
3357841,3984
3357862,3534
3357884,2731
3357927,1886
3357948,719
3357969,104
3358013,-568
3358032,-1378
3358053,-1504
3358096,-1700
3358117,-2075
3358139,-1770
3358215,-1258
3358224,-1064
3358267,-832
3358286,-304
3358308,-335
3358351,-397
3358372,-610
3358394,-839
3358437,-992
3358456,-873
3358478,-853
3358521,-1041
3358542,-1588
3358563,-1426
3358607,-1009
3358626,-925
3358648,-1120
3358691,-974
3358712,-275
3358822,-252
3358907,-119
3358953,-208
3358962,-857
3358983,-938
3359027,-756
3359048,-612
3359068,-625
3359111,-475
3359132,-132
3359153,-120
3359197,-129
3359217,-276
3359239,-246
3359282,-60
3359303,-176
3359324,-585
3359401,-781
3359407,-191
3359451,-310
3359471,-478
3359493,-302
3359536,-147
3359557,-281
3359578,-250
3359621,-109
3359641,-308
3359663,-425
3359706,-243
3359727,256
3359748,267
3359791,292
3359812,371
3359832,259
3359974,159
3360021,231
3360066,807
3360083,590
3360127,380
3360146,165
3360167,223
3360211,389
3360231,455
3360253,366
3360296,367
3360317,419
3360338,486
3360382,693
3360401,896
3360422,714
3360466,559
3360486,630
3360508,699
3360551,696
3360572,455
3360610,304
3360653,216
3360659,368
3360678,581
3360721,675
3360742,394
3360763,508
3360806,808
3360827,469
3360848,-22
3360891,-122
3360911,203
3360933,-82
3360975,-501
3360997,-631
3361108,-458
3361190,-1033
3361235,-1000
3361247,-505
3361269,-583
3361311,-622
3361332,-427
3361354,-609
3361396,-973
3361417,-1234
3361438,-1059
3361481,-987
3361502,-1292
3361523,-1150
3361566,-728
3361586,-386
3361608,-568
3361650,-724
3361673,-1017
3361693,-1083
3361735,-941
3361757,-726
3361795,-943
3361838,-1195
3361844,-937
3361864,-473
3361906,-219
3361927,-1076
3361948,-1383
3361990,-1059
3362013,-304
3362034,-628
3362076,-991
3362097,-666
3362119,-482
3362259,-624
3362305,-1003
3362348,-856
3362369,-834
3362411,-676
3362432,-681
3362453,-838
3362496,-702
3362518,-171
3362539,-374
3362582,-723
3362602,-679
3362624,-423
3362666,-349
3362688,-575
3362710,-481
3362752,-329
3362772,-514
3362794,-545
3362836,-367
3362857,-381
3362878,-631
3362920,-698
3362958,-632
3362964,-396
3363007,-387
3363027,-319
3363049,-223
3363091,-139
3363113,-507
3363135,-691
3363177,-569
3363198,-156
3363219,-287
3363261,-514
3363282,-458
3363393,-193
3363475,-495
3363520,-166
3363532,-226
3363554,-199
3363596,-253
3363601,-486
3363619,-577
3363641,-494
3363682,-243
3363703,-378
3363725,-570
3363767,-444
3363772,-179
3363790,54
3363811,-13
3363853,-183
3363858,-438
3363876,-623
3363897,-841
3363938,-892
3363943,-808
3363962,-594
3363983,-608
3364058,-745
3364068,-378
3364110,-178
3364131,-72
3364231,169
3364275,-413
3364318,69
3364323,-527
3364365,-821
3364383,-352
3364404,-319
3364545,-543
3364590,-342
3364633,172
3364654,-69
3364696,-574
3364701,-798
3364719,-550
3364741,-262
3364783,-195
3364805,-895
3364826,-957
3364868,-497
3364889,483
3364910,403
3364952,149
3364957,-81
3364976,-57
3364997,-38
3365039,-132
3365061,-701
3365082,-821
3365124,-733
3365145,-733
3365167,-740
3365208,-511
3365213,-275
3365232,-182
3365270,-434
3365312,-693
3365317,-611
3365337,-491
3365379,-529
3365384,-774
3365403,-875
3365424,-852
3365466,-697
3365471,-665
3365488,-601
3365509,-526
3365551,-344
3365556,-343
3365575,-531
3365685,-904
3365766,-697
3365810,-372
3365824,-57
3365845,-160
3365887,-232
3365892,-287
3365911,-171
3365932,-53
3365974,155
3365979,327
3365997,564
3366019,775
3366061,1070
3366082,1636
3366103,1976
3366145,2532
3366166,3734
3366188,3868
3366231,3625
3366252,3188
3366273,3425
3366707,3559
3367016,-1025
3367185,-1278
3367273,-1408
3367319,-1225
3367325,-1285
3367346,-926
3367390,-617
3367411,-786
3367432,-776
3367476,-559
3367495,-807
3367517,-1228
3367561,-1305
3367580,-753
3367601,-786
3367645,-993
3367666,-861
3367687,-483
3367731,-248
3367750,-682
3367771,-887
3367815,-863
3367836,-985
3367857,-1259
3367901,-1370
3367920,-781
3367942,-404
3367986,-263
3368005,-635
3368026,-550
3368168,-197
3368216,-551
3368261,-501
3368277,-29
3368320,103
3368359,-264
3368364,-247
3368408,-23
3368427,-273
3368446,-534
3368490,-361
3368511,642
3368532,680
3368576,373
3368595,-67
3368618,23
3368662,94
3368681,-387
3368702,-549
3368746,-333
3368766,427
3368788,555
3368830,509
3368851,27
3368873,-134
3368915,-90
3368937,6
3368958,-121
3369000,-214
3369020,-80
3369042,94
3369083,254
3369089,203
3369107,110
3369128,-40
3369170,-77
3369175,-147
3369194,-186
3369305,-324
3369387,-337
3369431,-553
3369443,-814
3369465,-1057
3369540,-1152
3369550,-894
3369591,-939
3369612,-1232
3369634,-1144
3369676,-923
3369698,-1029
3369718,-1221
3369760,-1193
3369765,-1135
3369784,-1173
3369805,-1502
3369847,-1793
3369868,-1832
3369890,-1744
3369932,-1638
3369953,-1334
3369974,-1180
3370017,-1090
3370022,-1144
3370039,-1084
3370060,-966
3370103,-827
3370108,-962
3370126,-1242
3370148,-1575
3370190,-1617
3370211,-1257
3370232,-1303
3370275,-1499
3370295,-1789
3370317,-1673
3370458,-1461
3370503,-1415
3370547,-1393
3370588,-1434
3370632,-597
3370651,-1446
3370693,-1784
3370698,-1537
3370715,-941
3370737,-810
3370779,-1253
3370784,-1876
3370801,-1933
3370823,-1432
3370865,-733
3370887,-504
3370909,-814
3370951,-973
3370972,-865
3370994,-860
3371036,-999
3371057,-1460
3371078,-1449
3371121,-1261
3371142,-1021
3371163,-870
3371206,-604
3371226,-673
3371248,-951
3371290,-970
3371313,-715
3371334,-954
3371377,-1259
3371397,-1160
3371419,-997
3371461,-1034
3371482,-1250
3371592,-1029
3371708,-384
3371753,-1233
3371797,-1715
3371816,-1402
3371837,-1051
3371879,-948
3371900,-1179
3371922,-941
3371964,-579
3371986,-830
3372006,-1081
3372048,-948
3372053,-689
3372071,-503
3372093,-566
3372135,-592
3372157,-483
3372179,-675
3372220,-997
3372241,-1391
3372263,-1313
3372305,-1214
3372310,-1355
3372327,-1560
3372348,-1725
3372390,-1529
3372395,-1146
3372414,-763
3372435,-731
3372477,-857
3372498,-804
3372519,-661
3372561,-637
3372567,-800
3372585,-857
3372623,-878
3372763,-912
3372809,-1427
3372852,-1382
3372858,-1442
3372900,-1222
3372919,-837
3372940,-1169
3372982,-1475
3372988,-1435
3373006,-969
3373028,-647
3373070,-674
3373090,-1144
3373112,-1033
3373154,-718
3373159,-547
3373177,-518
3373199,-727
3373241,-994
3373261,-1325
3373283,-1223
3373325,-1090
3373330,-1280
3373348,-1647
3373369,-1973
3373411,-1909
3373416,-1646
3373434,-1350
3373456,-1329
3373498,-1425
3373519,-1642
3373540,-1641
3373583,-1513
3373603,-1302
3373641,-1361
3373684,-1438
3373689,-1378
3373711,-1197
3373753,-1033
3373774,-1437
3373796,-1755
3373936,-1721
3373982,-1309
3374025,-1063
3374045,-1454
3374087,-1128
3374092,-886
3374110,-933
3374132,-1170
3374174,-1015
3374195,-88
3374216,-250
3374258,-633
3374263,-669
3374282,31
3374303,862
3374345,1295
3374366,1280
3374387,1823
3374430,2620
3374451,2734
3374472,2294
3374515,2204
3374536,2065
3374558,1252
3374601,241
3374622,-831
3374643,-1011
3374686,-1374
3374706,-2699
3374744,-2980
3374787,-2785
3374793,-2393
3374813,-2562
3374857,-2677
3374876,-2185
3374898,-1796
3374941,-1594
3374962,-1841
3375129,-1836
3375175,-1442
3375262,-2191
3375308,-1868
3375316,-1709
3375360,-1907
3375379,-1670
3375401,-1499
3375445,-1544
3375464,-1879
3375485,-1770
3375529,-1567
3375549,-1637
3375570,-1707
3375614,-1669
3375633,-1850
3375655,-1875
3375699,-1602
3375718,-1185
3375740,-1430
3375784,-1669
3375803,-1566
3375825,-1421
3375869,-1405
3375889,-2010
3375927,-2277
3375971,-2144
3375977,-1201
3375996,-1129
3376040,-1452
3376059,-1742
3376080,-1296
3376223,-934
3376270,-889
3376315,-1074
3376331,-961
3376374,-1203
3376394,-1145
3376415,-1002
3376459,-1012
3376479,-1035
3376501,-785
3376545,-594
3376564,-988
3376585,-1080
3376629,-887
3376649,-859
3376671,-1115
3376715,-1246
3376734,-1084
3376755,-897
3376799,-672
3376820,-693
3376841,-795
3376885,-629
3376904,-204
3376925,-415
3376969,-694
3376990,-578
3377011,-476
3377088,-617
3377094,-1041
3377138,-947
3377159,-979
3377180,-809
3377223,-510
3377243,-540
3377356,-614
3377438,-595
3377482,-547
3377493,-1074
3377514,-1079
3377556,-818
3377561,-666
3377580,-720
3377601,-1020
3377643,-1202
3377664,-1085
3377686,-1149
3377728,-1352
3377733,-1642
3377750,-1706
3377771,-1662
3377813,-1555
3377818,-1632
3377837,-1711
3377859,-1786
3377901,-1713
3377921,-1679
3377943,-1695
3377985,-1545
3378007,-1538
3378027,-1941
3378069,-2245
3378075,-2204
3378113,-1760
3378118,-1482
3378160,-1595
3378178,-2002
3378199,-1581
3378241,-1051
3378262,-1414
3378284,-1781
3378326,-1708
3378331,-1521
3378349,-1467
3378369,-1663
3378510,-1681
3378556,-1401
3378598,-1169
3378620,-1688
3378662,-1415
3378667,-1282
3378686,-1289
3378706,-1420
3378748,-1389
3378753,-1268
3378771,-1051
3378793,-1019
3378835,-1093
3378856,-1367
3378877,-1392
3378919,-1358
3378940,-1626
3378962,-1705
3379004,-1520
3379009,-1321
3379028,-1217
3379049,-1393
3379091,-1530
3379130,-1118
3379135,-866
3379177,-911
3379196,-1428
3379218,-1258
3379260,-884
3379265,-902
3379284,-1318
3379305,-1827
3379348,-1786
3379368,-838
3379390,-967
3379432,-1439
3379453,-1605
3379474,-1187
3379517,-900
3379539,-1209
3379649,-1290
3379731,-1222
3379775,-1288
3379788,-1253
3379809,-1285
3379852,-1129
3379874,-636
3379896,-735
3379938,-1045
3379958,-1342
3379980,-1075
3380022,-832
3380043,-1440
3380064,-1783
3380107,-1667
3380112,-1326
3380129,-997
3380167,-974
3380209,-1027
3380215,-905
3380236,-800
3380278,-767
3380299,-930
3380320,-1018
3380362,-1112
3380367,-1341
3380386,-1456
3380408,-1463
3380449,-1313
3380470,-1251
3380492,-1215
3380534,-1035
3380539,-980
3380557,-1078
3380579,-1334
3380620,-1344
3380641,-809
3380663,-836
3380803,-1080
3380849,-353
3380891,-742
3380912,-407
3380954,-618
3380959,-1050
3380978,-1338
3381000,-1446
3381042,-1338
3381062,-1264
3381084,-1356
3381126,-1386
3381131,-1398
3381150,-1235
3381545,-1042
3381745,-1428
3381927,-462
3382047,-971
3382093,747
3382136,1551
3382142,3121
3382161,3431
3382205,3311
3382225,2734
3382247,2717
3382291,2708
3382310,1450
3382332,463
3382376,-237
3382395,-979
3382416,-1438
3382460,-1942
3382481,-2175
3382502,-1682
3382546,-1106
3382565,-1185
3382587,-1441
3382631,-1319
3382650,-949
3382671,-1380
3382715,-1957
3382736,-2111
3382758,-1742
3382801,-1468
3382820,-1549
3382842,-1459
3382886,-1174
3382905,-1002
3382927,-1124
3383069,-1146
3383149,-1174
3383195,-1871
3383239,-1201
3383261,-1477
3383304,-1469
3383324,-575
3383345,-445
3383388,-592
3383408,-774
3383430,-682
3383473,-612
3383492,-1010
3383514,-1306
3383558,-1443
3383578,-1355
3383600,-1310
3383644,-1375
3383663,-1567
3383685,-1176
3383728,-499
3383747,-184
3383769,-556
3383813,-684
3383833,-446
3383855,-718
3383899,-1122
3383918,-1184
3383939,-987
3383983,-941
3384002,-1021
3384024,-739
3384068,-339
3384088,-81
3384200,-34
3384286,-348
3384365,-423
3384412,-140
3384421,-301
3384443,-203
3384487,71
3384506,187
3384528,107
3384572,243
3384591,551
3384613,395
3384657,201
3384676,-6
3384698,-49
3384742,12
3384761,203
3384783,49
3384827,-246
3384846,-194
3384868,393
3384912,834
3384931,134
3384953,-49
3384997,443
3385016,1092
3385038,458
3385082,-215
3385101,-251
3385123,-90
3385166,-165
3385187,-447
3385209,-339
3385351,-169
3385398,-83
3385442,-851
3385458,-736
3385501,-620
3385522,-1118
3385544,-1371
3385619,-1185
3385628,-838
3385671,-1319
3385691,-1553
3385713,-1338
3385756,-1240
3385776,-1434
3385875,-1372
3385921,-1387
3385964,-957
3386009,-1143
3386026,-890
3386048,-874
3386091,-941
3386111,-1248
3386133,-1420
3386176,-1482
3386197,-1237
3386218,-1177
3386261,-1297
3386282,-1472
3386304,-1089
3386347,-595
3386367,-754
3386481,-1119
3386565,-1120
3386610,-549
3386617,-538
3386639,-941
3386682,-1042
3386703,-480
3386724,-541
3386767,-898
3386788,-1383
3386808,-1224
3386884,-974
3386892,-989
3386935,-1098
3386956,-1011
3386977,-722
3387020,-442
3387041,-645
3387063,-711
3387106,-433
3387126,45
3387147,-90
3387189,-254
3387210,-464
3387232,-675
3387275,-905
3387296,-1103
3387317,-992
3387360,-782
3387381,-559
3387402,-502
3387445,-330
3387466,-110
3387488,-245
3387629,-478
3387676,-802
3387720,-873
3387737,-215
3387780,-264
3387801,-823
3387822,-778
3387864,-451
3387885,-232
3387907,-438
3387949,-537
3387970,-398
3387991,-424
3388034,-515
3388072,-661
3388078,-660
3388120,-768
3388141,-1157
3388163,-933
3388205,-422
3388226,-421
3388247,-860
3388290,-802
3388311,543
3388332,586
3388375,-21
3388396,-1010
3388417,-781
3388460,-439
3388481,-514
3388502,-624
3388545,-599
3388566,-474
3388588,-192
3388630,212
3388651,-166
3388765,-797
3388849,-37
3388894,106
3388901,-44
3388923,-208
3388966,-339
3388987,-868
3389008,-909
3389051,-552
3389070,41
3389092,-120
3389135,-250
3389156,63
3389177,194
3389220,161
3389381,-81
3389467,-235
3389512,123
3389556,415
3389574,86
3389595,26
3389638,-17
3389659,-185
3389680,-216
3389724,-229
3389744,-399
3389764,-345
3389906,-80
3389952,-508
3389997,-405
3390014,-572
3390057,-294
3390078,369
3390099,316
3390143,138
3390163,-230
3390185,-353
3390228,-278
3390249,169
3390270,43
3390313,-373
3390334,-687
3390355,-213
3390399,171
3390419,-439
3390441,-614
3390484,-255
3390503,341
3390525,211
3390568,263
3390588,1079
3390610,1365
3390653,1488
3390694,1817
3390699,2170
3390743,2524
3390759,2817
3390781,3092
3390825,3594
3390844,4087
3390865,3885
3390910,3782
3390929,3875
3391039,3403
3391128,40
3391175,-1497
3391181,-1361
3391201,-1475
3391247,-1269
3391264,-477
3391286,-555
3391331,-872
3391348,-1009
3391370,-756
3391415,-602
3391434,-873
3391456,-823
3391501,-556
3391520,-546
3391540,-719
3391585,-650
3391604,-419
3391625,-630
3391670,-758
3391689,-246
3391711,-21
3391755,-76
3391775,-406
3391796,-306
3391841,-184
3391880,-521
3391925,-594
3391943,-620
3391964,-662
3392009,-499
3392028,-277
3392050,-414
3392193,-410
3392242,-400
3392288,-443
3392301,-664
3392346,-289
3392363,-181
3392385,-555
3392430,-702
3392449,-111
3392470,155
3392515,157
3392534,-309
3392556,-235
3392601,110
3392618,151
3392640,-189
3392685,-280
3392704,182
3392725,137
3392770,-113
3392789,-264
3392811,-40
3392855,166
3392874,56
3392896,29
3392940,105
3392959,-78
3392981,-202
3393025,-34
3393044,582
3393082,540
3393127,318
3393132,384
3393151,828
3393195,1146
3393214,321
3393327,-120
3393412,334
3393457,1578
3393465,1102
3393485,1009
3393529,1259
3393550,1336
3393571,965
3393615,705
3393634,763
3393656,844
3393700,851
3393719,513
3393740,316
3393784,263
3393805,353
3393826,355
3393870,377
3393889,330
3393911,239
3393954,213
3393975,460
3393995,590
3394039,549
3394059,93
3394081,117
3394124,319
3394143,152
3394167,-138
3394210,-270
3394229,-406
3394251,-559
3394294,-571
3394333,-236
3394338,-160
3394479,-210
3394526,-461
3394571,-370
3394585,-135
3394628,-556
3394649,-471
3394670,6
3394713,201
3394734,-515
3394756,-639
3394799,-410
3394819,-461
3394841,-853
3394884,-979
3394904,-352
3394926,-183
3394969,-240
3394989,-231
3395011,52
3395053,274
3395075,-98
3395095,-197
3395138,-10
3395143,72
3395161,-83
3395183,-452
3395225,-555
3395246,82
3395268,201
3395310,24
3395331,-435
3395352,-302
3395395,-34
3395416,-137
3395437,-356
3395480,-355
3395617,-105
3395701,-157
3395746,-665
3395751,-238
3395771,-257
3395814,-368
3395835,-329
3395856,-8
3395899,330
3395920,106
3395941,-238
3395984,-304
3396006,97
3396027,121
3396070,-22
3396090,-314
3396112,-239
3396155,-83
3396175,-96
3396197,-69
3396239,130
3396260,298
3396281,141
3396324,38
3396346,-10
3396367,-113
3396410,-264
3396431,-450
3396452,-385
3396495,-226
3396516,-120
3396537,-136
3396580,-103
3396600,-70
3396799,-96
3396923,-590
3396969,-709
3397013,-80
3397051,50
3397095,-153
3397100,192
3397120,-183
3397163,-567
3397184,-324
3397205,-78
3397248,-90
3397253,-391
3397271,-561
3397293,-558
3397336,-379
3397356,-220
3397378,-243
3397420,-230
3397441,-345
3397463,-412
3397505,-422
3397526,-494
3397547,-413
3397590,-216
3397611,-299
3397632,-498
3397675,-433
3397695,75
3397717,57
3397759,-91
3397781,-225
3397803,-165
3397944,-73
3397990,-413
3398033,67
3398052,-13
3398095,-83
3398117,246
3398137,536
3398179,681
3398184,402
3398580,-56
3398783,-423
3398869,-347
3398914,-380
3399055,-174
3399139,-4
3399183,-96
3399194,90
3399215,151
3399257,219
3399278,514
3399300,776
3399342,1015
3399363,1383
3399384,1965
3399427,2876
3399448,3931
3399470,3860
3399513,3863
3399534,4289
3399556,4286
3399600,4015
3399618,3055
3399640,2615
3399684,2222
3399704,1045
3399725,285
3399770,-399
3399789,-1403
3399810,-1664
3399855,-1699
3399874,-1296
3399896,-1013
3399940,-777
3399959,-689
3399981,-647
3400025,-542
3400064,-784
3400069,-1048
3400212,-1177
3400261,-724
3400306,-641
3400315,-645
3400360,-845
3400379,-906
3400400,-760
3400445,-684
3400464,-966
3400486,-949
3400531,-677
3400550,-402
3400571,-543
3400616,-594
3400633,-180
3400655,68
3400699,168
3400718,-285
3400740,-483
3400784,-403
3400803,-257
3400825,-481
3400870,-692
3400889,-564
3400910,-402
3400955,-373
3400974,-500
3400995,-298
3401040,10
3401059,-220
3401080,-525
3401125,-503
3401144,-49
3401165,-148
3401210,-418
3401347,-803
3401434,-546
3401481,92
3401499,-28
3401543,182
3401562,377
3401584,300
3401629,250
3401648,-12
3401669,-104
3401714,5
3401733,183
3401754,64
3401798,92
3401817,814
3401839,1162
3401882,1302
3401903,1031
3401924,847
3401967,772
3401988,783
3402009,708
3402052,506
3402073,32
3402094,147
3402137,496
3402158,791
3402179,772
3402222,861
3402243,945
3402264,859
3402307,850
3402328,862
3402349,768
3402490,672
3402537,710
3402581,-383
3402600,412
3402643,1016
3402681,388
3402687,-22
3402729,235
3402748,936
3402770,464
3402813,-132
3402833,-453
3402855,-476
3402898,-604
3402918,-594
3402940,-409
3402982,-375
3403003,-661
3403025,-458
3403067,-111
3403088,-422
3403110,-787
3403152,-753
3403173,-247
3403194,-301
3403237,-509
3403258,-831
3403279,-775
3403322,-583
3403343,-557
3403364,-793
3403407,-905
3403428,-587
3403449,-468
3403492,-518
3403513,-780
3403624,-682
3403708,-515
3403753,163
3403764,-388
3403785,-409
3403828,-179
3403867,-277
3403872,-619
3403915,-729
3403934,-297
3403956,-90
3403998,46
3404019,-97
3404040,-342
3404083,-449
3404104,-112
3404126,-33
3404168,-190
3404189,-647
3404211,-527
3404254,-266
3404274,-295
3404296,-452
3404339,-429
3404358,-206
3404381,-222
3404424,-307
3404443,-569
3404465,-517
3404508,-304
3404528,-309
3404550,-504
3404593,-510
3404614,-170
3404635,-164
3404776,-267
3404823,56
3404867,-213
3404886,-259
3404928,-111
3404949,-286
3404971,-530
3405013,-547
3405052,-300
3405057,-385
3405100,-538
3405119,-443
3405140,-160
3405183,37
3405205,-401
3405225,-526
3405267,-193
3405273,209
3405289,301
3405311,-211
3405353,-811
3405358,-1026
3405377,-675
3405398,-402
3405441,-590
3405462,-1472
3405483,-1184
3405526,-590
3405547,-680
3405568,-1007
3405611,-859
3405632,-261
3405653,-509
3405696,-877
3405716,-975
3405738,-734
3405781,-479
3405801,-511
3405913,-685
3405996,-503
3406041,-605
3406052,-514
3406074,-362
3406116,-373
3406155,-815
3406160,-844
3406203,-764
3406222,-980
3406243,-894
3406286,-443
3406307,-182
3406328,-688
3406371,-995
3406392,-293
3406413,-33
3406456,-228
3406476,-864
3406498,-698
3406541,-338
3406561,-37
3406583,11
3406625,67
3406647,-254
3406669,-333
3406712,-75
3406732,360
3406754,122
3406796,-151
3406817,-166
3406839,-70
3406881,-69
3406902,-405
3406923,-579
3407064,-694
3407111,86
3407154,-7
3407173,-277
3407216,-318
3407237,-500
3407258,-783
3407301,-1004
3407321,-874
3407359,-635
3407402,-440
3407408,-541
3407507,-677
3407552,-182
3407596,-196
3407640,-112
3407659,405
3407680,344
3407723,221
3407744,85
3407765,137
3407808,290
3407828,461
3407850,530
3407893,804
3407913,1809
3407935,2362
3407978,2892
3407999,3472
3408019,3531
3408064,3595
3408083,3722
3408195,3551
3408282,1003
3408329,-1048
3408335,-1439
3408355,-1467
3408400,-1418
3408419,-1337
3408440,-1306
3408485,-1196
3408504,-854
3408526,-667
3408570,-573
3408589,-978
3408611,-1062
3408689,-788
3408695,-540
3408740,-826
3408757,-783
3408779,-689
3408824,-745
3408843,-938
3408865,-784
3408909,-527
3408928,-283
3408950,-227
3408995,-171
3409012,-482
3409034,-662
3409079,-668
3409098,-635
3409119,-515
3409164,-201
3409183,-157
3409205,-548
3409347,-644
3409396,-801
3409442,76
3409454,-410
3409499,-358
3409518,-64
3409539,61
3409584,170
3409603,-220
3409624,-469
3409669,-406
3409688,-39
3409709,-142
3409754,-281
3409773,-253
3409795,-151
3409839,-64
3409878,-46
3409883,9
3409927,101
3409943,-138
3409964,-320
3410009,-318
3410028,-237
3410050,-288
3410094,-182
3410113,360
3410135,391
3410179,237
3410198,390
3410220,800
3410265,1045
3410284,587
3410305,571
3410350,918
3410369,1060
3410481,677
3410568,512
3410613,982
3410619,1074
3410640,1196
3410683,1385
3410704,1392
3410726,1294
3410769,1305
3410788,1142
3410810,805
3410853,509
3410874,411
3410895,447
3410938,373
3410959,-15
3410980,34
3411024,366
3411044,1072
3411082,1225
3411126,1235
3411132,886
3411150,822
3411193,947
3411214,744
3411235,225
3411279,-226
3411299,-324
3411321,-119
3411364,-4
3411385,-511
3411406,-783
3411449,-707
3411468,-53
3411491,75
3411633,97
3411679,5
3411723,-491
3411741,-1162
3411784,-1183
3411805,-739
3411826,-689
3411869,-671
3411890,-355
3411911,-172
3411954,-141
3411975,-601
3411996,-650
3412039,-390
3412058,-20
3412081,-287
3412124,-611
3412143,-531
3412165,-208
3412208,-58
3412229,-730
3412250,-878
3412326,-499
3412334,425
3412377,199
3412398,313
3412419,615
3412462,732
3412483,-85
3412504,-476
3412547,-523
3412568,-421
3412590,-583
3412633,-700
3412653,-496
3412765,-291
3412849,38
3412895,-363
3412904,-204
3412925,-442
3412969,-445
3412988,248
3413009,288
3413053,71
3413073,13
3413095,138
3413138,-36
3413158,-825
3413180,-668
3413223,-226
3413244,-199
3413265,-341
3413309,-38
3413329,863
3413351,758
3413394,432
3413413,193
3413435,324
3413478,341
3413498,-267
3413536,-385
3413580,-165
3413585,219
3413605,221
3413648,303
3413669,322
3413691,85
3413733,-102
3413754,-173
3413776,-281
3413917,-430
3413964,260
3414008,224
3414026,378
3414069,63
3414089,-412
3414111,-221
3414154,32
3414174,-378
3414196,-677
3414239,-601
3414259,-86
3414281,-56
3414324,-59
3414344,-2
3414366,-8
3414408,37
3414429,265
3414450,234
3414493,62
3414514,-190
3414536,16
3414578,294
3414599,144
3414621,19
3414663,186
3414684,556
3414706,415
3414749,252
3416475,184
3417342,-905
3417911,-950
3418214,-776
3418403,95
3418534,554
3418582,433
3418628,-219
3418633,398
3418654,801
3418699,818
3418716,331
3418738,484
3418783,798
3418802,585
3418823,348
3418868,438
3418887,621
3418908,343
3419051,119
3419097,189
3419142,340
3419159,70
3419202,-164
3419221,-335
3419243,-436
3419286,-535
3419307,-505
3419328,-489
3419371,-680
3419392,-1272
3419413,-1053
3419456,-614
3419477,-983
3419499,-1428
3419542,-1257
3419562,-152
3419584,-333
3421274,-831
3422098,620
3422609,53
3422856,591
3422981,289
3423065,-91
3423109,-8
3423118,463
3423161,290
3423166,12
3423184,95
3423206,423
3423248,759
3423269,378
3423290,110
3423333,262
3423353,827
3423375,698
3423418,463
3423438,386
3423460,468
3423503,493
3423523,550
3423545,788
3423587,1050
3423608,1049
3423630,956
3423771,873
3423817,-118
3423861,-290
3423880,122
3423923,-217
3423944,-455
3423965,16
3424008,488
3424028,206
3424050,-163
3424093,-205
3424113,193
3425773,226
3426605,-496
3427173,94
3427431,682
3427595,-5
3427681,1086
3427726,417
3427733,267
3427753,267
3427797,602
3427817,950
3427839,625
3427882,443
3427901,827
3427923,725
3427966,296
3427987,-215
3428008,10
3428051,205
3428072,-187
3428093,-277
3428137,-110
3428157,-129
3428179,-400
3428320,-548
3428367,-484
3428411,-352
3428429,-417
3428472,-554
3428493,-308
3428513,-93
3428556,-145
3428577,-919
3428598,-876
3428642,-434
3428662,-374
3428684,-903
3428727,-1129
3430386,-332
3431269,-603
3431821,-347
3432114,-538
3432243,-200
3432328,269
3432374,410
3432385,-67
3432428,-481
3432447,-168
3432469,68
3432512,55
3432533,-296
3432554,-315
3432598,-252
3432618,-273
3432640,-300
3432683,-313
3432702,-657
3432724,-822
3432768,-790
3432788,-418
3432810,-264
3432952,-173
3432999,-21
3433044,-635
3433060,-394
3433103,-264
3433122,-381
3433144,-389
3433188,-60
3433208,471
3433230,132
3433273,-226
3433292,352
3433314,766
3433357,687
3433378,-52
3435025,231
3435901,166
3436484,707
3436783,736
3436954,-308
3437044,-582
3437090,-562
3437098,-883
3437143,-1307
3437162,-1290
3437183,-1151
3437229,-1178
3437246,-1163
3437268,-806
3437313,-523
3437332,-1093
3437354,-1354
3437399,-1234
3437416,-1085
3437438,-1335
3437483,-1453
3437599,-1064
3437647,-772
3437693,-909
3437739,-1234
3437751,-1000
3437773,-670
3437818,-409
3437837,-523
3437859,-666
3437904,-677
3437923,-615
3437943,-752
3437988,-1007
3438007,-1558
3439561,-1447
3440422,-976
3440981,-313
3441238,-228
3441408,-569
3441496,-323
3441542,-112
3441563,176
3441607,-111
3441626,-285
3441648,10
3441692,258
3441711,-3
3441734,32
3441778,410
3441797,904
3441819,814
3441863,857
3441882,1547
3441902,1919
3441948,2204
3441967,2741
3441988,3181
3442133,3694
3442183,3815
3442232,1381
3442238,767
3442285,311
3442302,-1497
3442324,-1923
3442371,-1718
3442387,-1394
3442409,-1637
3442456,-1671
3442472,-1012
3442493,-817
3442540,-788
3442587,-712
3442635,-652
3442641,-836
3442662,-755
3442709,-585
3442727,-687
3442748,-803
3442795,-735
3442811,-642
3442833,-764
3442880,-833
3442896,-702
3442917,-627
3442964,-582
3442982,-484
3443003,-349
3443050,-268
3443066,-619
3443088,-646
3443135,-382
3443151,-255
3443266,-612
3443358,-515
3443406,-600
3443421,-685
3443468,-597
3443486,-618
3443507,-694
3443554,-586
3443570,-21
3443592,79
3443638,-37
3443655,-352
3443677,-274
3443724,-144
3443740,-445
3443761,-523
3443848,-291
3443897,141
3443908,296
3443930,201
3443977,76
3443994,-268
3444016,-541
3444062,-683
3444078,-156
3444100,234
3444147,425
3444164,490
3444186,739
3444233,931
3444249,112
3444270,-275
3444416,-134
3444466,656
3444512,530
3444521,405
3444565,454
3444584,60
3444606,-54
3444650,131
3444669,367
3444691,248
3444735,329
3444754,1020
3444776,1020
3444821,671
3444838,75
3444861,197
3444906,365
3444923,98
3444945,158
3444990,561
3445009,882
3445030,590
3445075,441
3445122,519
3445167,-217
3445178,-843
3445200,-816
3445245,-741
3445264,-883
3445285,-824
3445330,-597
3445349,-571
3445370,-732
3445415,-679
3445434,-248
3445549,-203
3445635,-767
3445682,-1365
3445703,-1224
3445748,-1085
3445767,-999
3445789,-1008
3445834,-968
3445853,-942
3445874,-977
3445919,-1028
3445938,-1328
3445958,-1384
3446003,-1273
3446022,-1193
3446044,-1176
3446089,-955
3446108,-471
3446129,-513
3446174,-601
3446193,-573
3446215,-608
3446259,-774
3446278,-1238
3446324,-1191
3446369,-759
3446384,-647
3446428,-551
3446446,-339
3446467,-415
3446512,-538
3446531,-778
3446553,-875
3446696,-917
3446744,-910
3446791,-748
3446803,-669
3446848,-476
3446867,-304
3446889,-484
3446934,-492
3446951,-18
3446974,-75
3447019,-376
3447036,-538
3447058,-217
3447102,39
3447121,-301
3447143,-516
3447188,-505
3447207,-401
3447228,-465
3447273,-595
3447292,-997
3447314,-891
3447358,-483
3447377,-214
3447399,-570
3447443,-800
3447462,-522
3447484,-480
3447569,-655
3447615,-917
3447630,-454
3447651,-419
3447695,-601
3447716,-1124
3447828,-887
3447914,-1124
3447960,-849
3447966,-1499
3447986,-1398
3448030,-1121
3448050,-833
3448071,-797
3448115,-743
3448136,-630
3448157,-387
3448202,-85
3448221,-534
3448242,-1029
3448287,-1074
3448306,-476
3448327,-696
3448372,-1175
3448391,-1268
3448412,-764
3448457,-350
3448476,-646
3448497,-880
3448541,-774
3448561,-152
3448582,-122
3448626,-312
3448645,-762
3448667,-716
3448711,-562
3448958,-665
3449087,-44
3449174,-511
3449221,-359
3449227,-843
3449248,-1100
3449292,-961
3449311,-414
3449333,-433
3449377,-511
3449397,-590
3449419,-652
3449463,-654
3449482,-395
3449504,-298
3449548,-323
3449567,-515
3449588,-362
3449632,-78
3449653,-64
3449674,-317
3449718,-534
3449737,-868
3449759,-889
3449803,-722
3449822,-479
3449844,-480
3449888,-356
3449907,305
3449928,590
3449972,723
3450087,422
3450191,682
3450236,861
3450285,2982
3450332,2947
3450345,2344
3450424,1806
3450431,446
3450477,-247
3450494,-1490
3450514,-1578
3450560,-1511
3450578,-2068
3450600,-2094
3450646,-1532
3450663,-635
3450685,-939
3450731,-1196
3450748,-715
3450770,-659
3450816,-964
3450833,-1286
3450855,-986
3450901,-780
3450919,-1186
3450940,-1174
3450987,-805
3451004,-488
3451026,-759
3451072,-1011
3451089,-1054
3451110,-810
3451254,-467
3451304,-459
3451352,-920
3451361,-764
3451407,-569
3451423,-626
3451445,-721
3451491,-672
3451509,-574
3451530,-662
3451609,-764
3451616,-711
3451662,-453
3451678,-547
3451700,-723
3451746,-572
3451763,17
3451785,-134
3451831,-482
3451848,-699
3451870,-581
3451916,-589
3451933,-947
3451955,-810
3452001,-438
3452018,-226
3452040,-326
3452086,-247
3452103,32
3452125,-36
3452171,-124
3452188,-169
3452209,-159
3452255,-172
3452273,-347
3452388,-283
3452477,-127
3452525,178
3452544,449
3452590,481
3452608,-220
3452629,-393
3452676,-246
3452693,63
3452714,95
3452760,204
3452778,510
3452816,611
3452862,652
3452883,358
3452929,509
3452947,359
3452968,64
3453013,8
3453032,297
3453054,166
3453098,-37
3453117,17
3453138,177
3453182,301
3453202,694
3453224,970
3453267,989
3453287,248
3453308,192
3453352,430
3453372,-42
3453394,-702
3453536,-976
3453583,-952
3453628,-243
3453644,-610
3453687,-974
3453706,-958
3453728,-671
3453771,-533
3453792,-1206
3453814,-1413
3453857,-1135
3453877,-608
3453898,-941
3453942,-1311
3453963,-995
3453984,-721
3454028,-803
3454066,-1406
3454071,-1217
3454115,-754
3454133,-489
3454154,-562
3454198,-451
3454217,-132
3454238,-153
3454282,-214
3454303,-555
3454324,-784
3454368,-907
3454387,-1114
3454409,-1210
3454452,-1126
3454472,-976
3454493,-1191
3454537,-1319
3454558,-536
3454670,-101
3454755,-122
3454801,-904
3454807,-466
3454829,-497
3454872,-576
3454893,-430
3454914,-382
3454958,-411
3454977,-431
3454999,-346
3455043,-287
3455063,-394
3455083,-316
3455127,-131
3455148,-283
3455169,-523
3455246,-540
3455254,29
3455298,-47
3455317,-517
3455338,-526
3455382,-314
3455401,-301
3455423,-625
3455466,-844
3455487,-715
3455509,-615
3455552,-618
3455572,-799
3455593,-719
3455637,-553
3455656,-693
3455678,-729
3455820,-452
3455868,23
3455913,-330
3455928,-517
3455972,-162
3455992,-340
3456014,-594
3456057,-463
3456078,128
3456099,37
3456142,-207
3456163,-397
3456184,-211
3456228,8
3456246,-155
3456268,-296
3456311,-210
3456332,-36
3456353,-152
3456397,-220
3456417,-292
3456455,-358
3456498,-300
3456504,196
3456524,308
3456567,259
3456588,236
3456610,354
3456653,315
3456672,-274
3456694,-196
3456737,168
3456758,0
3456779,-414
3456823,-422
3456842,353
3456954,326
3457038,-604
3457084,-19
3457093,-454
3457115,-406
3457158,-166
3457177,-243
3457199,-543
3457242,-714
3457263,-671
3457284,-473
3457328,-112
3457348,150
3457370,-195
3457413,-487
3457432,-315
3457454,-176
3457497,-208
3457518,-461
3457539,-366
3457582,-147
3457603,148
3457641,311
3457684,520
3457690,393
3457710,164
3457753,139
3457773,670
3457794,952
3457837,1158
3457858,1578
3457880,2127
3457924,2798
3457943,3077
3457965,2868
3458108,2960
3458157,963
3458204,-101
3458215,-1349
3458260,-1489
3458278,-927
3458300,-724
3458345,-609
3458364,-475
3458385,-437
3458431,-362
3458448,-169
3458470,-204
3458515,-413
3458534,-928
3458555,-827
3458601,-545
3458618,-544
3458640,-688
3458685,-632
3458704,-392
3458725,-411
3458770,-456
3458788,-650
3458826,-602
3458871,-307
3458877,145
3458895,10
3458940,-119
3458959,141
3458981,322
3459026,371
3459043,60
3459065,-98
3459110,-203
3459129,-346
3459243,-267
3459331,-302
3459378,-355
3459400,-283
3459445,114
3459462,35
3459485,-289
3459530,-299
3459548,342
3459569,365
3459614,116
3459633,-274
3459655,-119
3459700,115
3459717,-9
3459739,-234
3459784,-334
3459803,-342
3459824,-233
3459869,-29
3459888,150
3459910,113
3459955,119
3459972,127
3459995,131
3460040,157
3460058,-112
3460095,-316
3460141,-272
3460146,259
3460165,369
3460210,388
3460229,641
3460251,904
3460394,1071
3460444,424
3460490,404
3460500,789
3460545,792
3460564,1066
3460586,1416
3460631,1643
3460649,1108
3460671,828
3460716,850
3460734,786
3460755,504
3460801,347
3460818,356
3460840,348
3460884,472
3460904,883
3461004,789
3461051,850
3461098,109
3461143,331
3461156,322
3461176,-15
3461220,-139
3461239,-241
3461261,-445
3461304,-487
3461325,-368
3461347,-639
3461390,-935
3461527,-620
3461612,-730
3461657,-455
3461663,-860
3461680,-1076
3461723,-876
3461744,-251
3461766,-392
3461809,-586
3461829,-208
3461851,79
3461894,124
3461915,-174
3461935,-166
3461978,-184
3461999,-801
3462020,-827
3462064,-470
3462084,-409
3462106,-850
3462149,-932
3462170,60
3462191,139
3462234,-280
3462255,-828
3462275,-478
3462318,-104
3462339,-496
3462360,-728
3462404,-544
3462424,-65
3462446,-222
3462489,-424
3462510,-470
3462531,-351
3462673,-192
3462720,-535
3462797,-680
3462841,-237
3462847,-34
3462865,-118
3462908,-190
3462929,-424
3462951,-415
3462994,-256
3463014,-495
3463036,-737
3463079,-555
3463098,305
3463120,164
3463163,-254
3463183,-493
3463205,-404
3463248,-570
3463269,-1070
3463290,-788
3463334,-382
3463354,-632
3463375,-700
3463418,-323
3463439,-148
3463460,-746
3463504,-1120
3463524,-594
3463546,-411
3463589,-509
3463608,-600
3463630,-283
3463673,148
3463694,529
3463806,306
3463890,-842
3463936,-1648
3463944,-851
3463982,-762
3464026,-868
3464032,-955
3464051,-795
3464095,-607
3464114,-621
3464136,-632
3464180,-536
3464199,-439
3464220,-391
3464264,-198
3464284,-213
3464306,-559
3464349,-773
3464370,-611
3464391,-707
3464435,-1012
3464454,-1195
3464475,-820
3464518,-510
3464539,-983
3464561,-1196
3464604,-1044
3464625,-902
3464646,-1185
3464689,-1305
3464710,-882
3464732,-771
3464775,-820
3464795,-902
3464817,-851
3464959,-868
3465005,-1156
3465050,-1000
3465067,-650
3465110,-675
3465268,-874
3465353,-560
3465398,-351
3465404,-112
3465446,-101
3465464,-342
3465484,-59
3465527,505
3465547,873
3465569,886
3465612,1397
3465633,2884
3465655,3007
3465699,2882
3465718,2951
3465740,2868
3465785,2431
3465803,1090
3465824,553
3465869,-32
3465888,-1601
3465910,-2025
3465955,-2024
3465974,-2001
3466086,-2168
3466174,-1311
3466222,-1243
3466228,-1276
3466244,-1513
3466289,-1595
3466308,-1328
3466329,-1286
3466375,-1360
3466392,-1503
3466414,-1399
3466459,-1201
3466498,-931
3466503,-871
3466548,-828
3466562,-1081
3466584,-1187
3466629,-1107
3466648,-922
3466670,-1041
3466715,-1194
3466732,-1159
3466754,-934
3466799,-802
3466818,-1340
3466840,-1437
3466885,-1131
3466903,-924
3466924,-1312
3466969,-1450
3466988,-621
3467010,-465
3467055,-690
3467073,-1068
3467094,-953
3467238,-902
3467286,-1221
3467333,-706
3467344,-631
3467389,-699
3467408,-426
3467430,-392
3467475,-528
3467492,-868
3467514,-772
3467559,-522
3467578,-297
3467616,-339
3467661,-337
3467667,-375
3467685,-468
3467730,-532
3467749,-730
3467770,-754
3467815,-621
3467833,-302
3467854,-136
3467899,143
3467918,434
3467940,239
3467985,23
3468004,-35
3468025,-80
3468070,-286
3468088,-560
3468109,-218
3468154,264
3468173,462
3468195,428
3468240,559
3468259,408
3468371,42
3468459,-281
3468506,138
3468512,202
3468530,211
3468575,145
3468593,-177
3468614,-192
3468659,-86
3468678,-179
3468700,-212
3468745,-67
3468764,-142
3468785,-466
3468863,-612
3468870,-542
3468915,-824
3468932,-950
3468954,-747
3468998,-673
3469017,-1149
3469039,-1218
3469083,-1088
3469103,-1198
3469125,-1275
3469169,-1085
3469188,-775
3469209,-977
3469253,-1195
3469274,-1319
3469294,-1254
3469337,-1136
3469358,-1238
3469380,-1456
3469522,-1538
3469569,-1115
3469613,-1218
3469629,-1449
3469673,-1458
3469694,-1297
3469715,-1279
3469759,-1193
3469778,-962
3469799,-1003
3469843,-1151
3469864,-1314
3469884,-1073
3469927,-752
3469948,-1008
3469986,-1302
3470029,-1201
3470035,-462
3470055,-551
3470098,-989
3470118,-1556
3470139,-1272
3470182,-899
3470203,-1115
3470225,-1318
3470268,-1146
3470289,-633
3470311,-740
3470354,-842
3470373,-635
3470395,-599
3470438,-731
3470459,-885
3470480,-605
3470524,-262
3470544,-516
3470656,-896
3470740,-1134
3470786,-850
3470794,-816
3470815,-814
3470859,-758
3470878,-1006
3470900,-1173
3470943,-1120
3470964,-804
3470985,-750
3471029,-677
3471048,-586
3471070,-677
3471113,-720
3471152,-550
3471157,-533
3471200,-678
3471220,-976
3471241,-814
3471285,-614
3471304,-953
3471325,-1036
3471369,-756
3471388,-571
3471410,-882
3471453,-971
3471474,-381
3471495,-373
3471539,-644
3471560,-920
3471580,-760
3471623,-713
3471644,-1261
3471665,-1295
3471807,-1013
3471910,-1091
3471957,-917
3472001,-335
3472045,-438
3472061,-773
3472082,-744
3472125,-658
3472146,-846
3472167,-921
3472210,-862
3472231,-886
3472252,-922
3472295,-778
3472316,-513
3472337,-642
3472412,-829
3472422,-937
3472465,-759
3472485,-701
3472507,-773
3472550,-757
3472570,-624
3472592,-564
3472634,-457
3472655,-438
3472677,-590
3472719,-728
3472740,-819
3472761,-736
3472804,-613
3472826,-807
3472936,-978
3473019,-311
3473064,-702
3473076,-775
3473096,-991
3473139,-968
3473144,-804
3473162,-623
3473184,-778
3473226,-1092
3473247,-1288
3473269,-1125
3473312,-1075
3473332,-1476
3473354,-1434
3473397,-1060
3473416,-461
3473438,-446
3473480,-455
3473501,-675
3473539,-875
3473582,-963
3473588,-1060
3473608,-1229
3473651,-1362
3473671,-952
3473693,-450
3473736,-57
3473756,-246
3473778,-339
3473821,-101
3473843,345
3473863,230
3473906,208
3473926,1082
3473948,1734
3474090,2234
3474138,3201
3474184,1353
3474199,257
3474244,-384
3474262,-1631
3474284,-1973
3474329,-2143
3474347,-2333
3474368,-2152
3474413,-1795
3474432,-1620
3474454,-1723
3474499,-1620
3474517,-1408
3474538,-1537
3474583,-1605
3474603,-1500
3474624,-1609
3474669,-1796
3474708,-1781
3474753,-1385
3474771,-1824
3474793,-1916
3474837,-1679
3474857,-1246
3474878,-1307
3474923,-1266
3474942,-688
3474964,-517
3475008,-625
3475027,-1327
3475047,-1400
3475092,-1187
3475111,-935
3475223,-1135
3475310,-522
3475357,-1110
3475363,-173
3475383,-193
3475427,-704
3475446,-1465
3475468,-1228
3475512,-860
3475532,-741
3475553,-790
3475598,-712
3475617,-532
3475638,-524
3475683,-532
3475702,-880
3475724,-941
3475769,-772
3475786,-535
3475808,-591
3475885,-528
3475892,-199
3475937,-182
3475956,-259
3475977,-411
3476022,-527
3476041,-412
3476063,-179
3476108,88
3476127,186
3476148,35
3476193,-92
3476211,-128
3476232,-53
3476375,-4
3476423,596
3476469,279
3476483,502
3476527,710
3476546,253
3476568,28
3476612,271
3476631,817
3476652,536
3476696,302
3476716,944
3476738,1240
3476781,1068
3476802,251
3476823,357
3476867,716
3476886,675
3476908,389
3476951,319
3476972,529
3476993,537
3477037,521
3477056,402
3477077,253
3477154,72
3477162,-147
3477206,8
3477226,-316
3477247,-654
3477291,-645
3477310,28
3477332,5
3477375,-371
3477395,-991
3477509,-808
3477593,-1159
3477639,-876
3477646,-367
3477667,-321
3477710,-497
3477730,-828
3477752,-691
3477795,-458
3477816,-619
3477837,-836
3477881,-795
3477901,-475
3477923,-560
3477966,-648
3477985,-410
3478007,-332
3478050,-518
3478071,-962
3478092,-663
3478135,-288
3478156,-857
3478178,-1319
3478221,-1293
3478242,-668
3478263,-695
3478306,-870
3478345,-1145
3478350,-1091
3478393,-857
3478412,-475
3478432,-590
3478475,-797
3478495,-851
3478517,-574
3478658,-247
3478705,-611
3478749,-788
3478768,-859
3478811,-757
3478831,-571
3478853,-332
3478896,10
3478916,-151
3478938,-560
3478981,-647
3479001,-68
3479023,-89
3479066,-408
3479086,-969
3479108,-805
3479151,-454
3479171,-348
3479193,-523
3479236,-514
3479256,-241
3479278,-346
3479321,-557
3479341,-656
3479363,-526
3479406,-468
3479426,-710
3479448,-642
3479491,-397
3479529,-266
3479534,-337
3479577,-284
3479596,-291
3479618,-405
3479660,-430
3479681,-590
3479793,-758
3479876,-135
3479921,246
3479932,-448
3479953,-612
3479996,-360
3480017,-171
3480038,-602
3480081,-892
3480102,-353
3480124,-65
3480166,-91
3480187,-449
3480208,-311
3480251,-71
3480272,-173
3480294,-332
3480337,-338
3480357,-367
3480379,-443
3480422,-447
3480442,-494
3480464,-492
3480507,-343
3480526,-218
3480548,-349
3480591,-340
3480611,176
3480633,227
3480676,-22
3480714,-613
3480719,-485
3480762,-191
3480782,-356
3480803,-655
3480945,-703
3480991,0
3481035,-199
3481053,242
3481096,448
3481117,-38
3481138,-152
3481181,105
3481202,210
3481223,-63
3481266,-52
3481287,458
3481308,306
3481351,-13
3481372,62
3481393,317
3481436,364
3481457,-55
3481479,-40
3481522,148
3481542,6
3481564,-196
3481607,-189
3481627,74
3481649,108
3481692,96
3481712,-90
3481734,-125
3481777,-53
3481797,-167
3481819,-406
3481862,-518
3481882,-322
3481904,-240
3482078,-229
3482164,307
3482209,-186
3482215,-68
3482236,-39
3482279,210
3482300,458
3482322,204
3482365,73
3482385,532
3482407,597
3482450,458
3482470,917
3482492,1720
3482535,2406
3482556,2682
3482655,2969
3482700,4126
3482747,3474
3482793,2243
3482807,1161
3482829,647
3482874,57
3482891,-1348
3482913,-1855
3482958,-2082
3482977,-1956
3482999,-1679
3483044,-1322
3483061,-931
3483083,-835
3483226,-676
3483274,-620
3483320,-815
3483333,-897
3483377,-915
3483397,-1102
3483434,-1145
3483479,-1028
3483485,-672
3483503,-508
3483548,-328
3483567,-380
3483588,-619
3483633,-784
3483652,-774
3483674,-715
3483718,-716
3483737,-856
3483759,-686
3483803,-321
3483822,-204
3483844,-541
3483889,-781
3483908,-771
3483929,-721
3483974,-687
3483993,-665
3484014,-604
3484059,-411
3484077,14
3484100,-16
3484144,-247
3484162,-525
3484183,-191
3484228,174
3484247,-473
3484361,-873
3484448,-397
3484495,40
3484501,-214
3484519,52
3484564,466
3484583,157
3484620,-313
3484665,-403
3484671,98
3484689,35
3484733,-221
3484752,-247
3484773,170
3484818,600
3484838,567
3484860,358
3484904,307
3484923,421
3484945,473
3484988,508
3485008,136
3485029,-23
3485072,140
3485093,696
3485114,671
3485157,559
3485178,588
3485200,623
3485243,602
3485263,659
3485285,847
3485328,944
3485349,429
3485370,330
3485512,567
3485559,678
3485603,757
3485619,272
3485663,231
3485683,508
3485705,447
3485748,207
3485769,-47
3485790,171
3485833,342
3485872,-307
3485877,-576
3485920,-491
3485938,-581
3485959,-951
3486002,-1073
3486023,-489
3486045,-392
3486088,-535
3486108,-604
3486130,-340
3486173,-150
3486193,-664
3486215,-844
3486258,-618
3486278,-124
3486300,-372
3486343,-695
3486363,-708
3486385,-577
3486427,-613
3486448,-1032
3486470,-978
3486512,-744
3486533,-621
3486647,-575
3486729,-684
3486774,-705
3486783,-390
3486805,-123
3486847,-79
3486868,-624
3486890,-719
3486932,-569
3486954,-345
3486976,-379
3487019,-392
3487057,-299
3487062,-108
3487104,180
3487123,93
3487145,-297
3487187,-525
3487208,-407
3487230,-407
3487272,-535
3487295,-713
3487315,-559
3487357,-341
3487362,-307
3487379,-266
3487401,-195
3487443,6
3487465,13
3487487,-186
3487530,-247
3487550,-208
3487572,-281
3487615,-311
3487635,-499
3487657,-710
3487798,-765
3487844,-174
3487888,149
3487906,-352
3487948,-421
3487971,-155
3487992,-49
3488035,42
3488055,-82
3488076,-195
3488119,-132
3488139,127
3488161,62
3488203,-54
3488241,-173
3488246,-128
3488289,-195
3488311,-420
3488331,-400
3488373,-316
3488378,-396
3488397,-476
3488419,-582
3488461,-575
3488481,-486
3488503,-333
3488545,-43
3488566,-64
3488587,-408
3488630,-555
3488635,-418
3488653,-38
3488675,64
3488717,-184
3488737,-788
3488759,-531
3488801,-35
3488822,-37
3488934,-396
3489016,-7
3489061,151
3489073,-120
3489095,-134
3489137,18
3489158,15
3489179,-158
3489222,-217
3489242,-4
3489264,155
3489306,268
3489328,-48
3489350,-276
3489425,-325
3489433,12
3489476,153
3489496,23
3489518,-164
3489560,-141
3489583,315
3489604,253
3489647,-82
3489667,-630
3489689,-487
3489731,-292
3489752,-448
3489773,-397
3489816,-91
3489838,70
3489859,-73
3489901,27
3489922,489
3489943,373
3490084,153
3490130,490
3490174,167
3490193,398
3490236,389
3490257,231
3490278,171
3490321,167
3490343,230
3490364,296
3490407,319
3490428,169
3490449,359
3490492,743
3490512,699
3490534,310
3490577,197
3490597,570
3490619,466
3490694,121
3490702,-90
3490745,231
3490750,253
3490768,78
3490789,-124
3490832,51
3490852,781
3490874,705
3490917,424
3490937,221
3490959,276
3491001,179
3491022,-244
3491043,-144
3491086,29
3491108,-428
3491218,-588
3491300,-307
3491344,225
3491357,372
3491378,446
3491421,467
3491441,140
3491463,120
3491505,401
3491526,853
3491548,809
3491590,967
3491611,2401
3491633,3289
3491676,3966
3491697,4733
3491719,5067
3491764,5252
3491781,4444
3491803,3769
3491848,3205
3491886,1736
3491892,760
3491936,-66
3491952,-910
3491974,-1000
3492018,-922
3492037,-851
3492059,-977
3492103,-1036
3492123,-872
3492143,-787
3492187,-809
3492206,-1214
3492228,-1291
3492371,-1112
3492420,-765
3492466,-1030
3492479,-840
3492524,-536
3492543,-629
3492565,-843
3492610,-724
3492627,-162
3492649,-236
3492694,-445
3492713,-564
3492734,-473
3492779,-380
3492798,-303
3492820,-198
3492864,-112
3492882,-605
3492903,-882
3492948,-767
3492967,29
3492989,33
3493034,-259
3493072,-537
3493077,-210
3493122,117
3493138,-250
3493159,-512
3493204,-468
3493222,-266
3493243,-317
3493288,-278
3493307,-194
3493329,-347
3493374,-431
3493393,-170
3493561,-71
3493609,-712
3493698,-1036
3493745,-662
3493750,-1083
3493794,-1120
3493810,-728
3493831,-807
3493874,-1106
3493895,-1122
3493917,-562
3493960,-53
3493980,-464
3494002,-896
3494045,-964
3494065,-697
3494087,-755
3494130,-845
3494151,-867
3494172,-724
3494215,-474
3494235,-197
3494257,-301
3494332,-473
3494341,-1058
3494383,-977
3494404,-750
3494426,-825
3494468,-903
3494489,-692
3494511,-479
3494652,-355
3494698,-830
3494742,-914
3494761,-1107
3494804,-943
3494825,-642
3494846,-749
3494889,-865
3494910,-856
3494931,-799
3494974,-763
3494995,-947
3495017,-1098
3495060,-1229
3495080,-1620
3495100,-1690
3495144,-1583
3495164,-1720
3495186,-2109
3495229,-2350
3495250,-1942
3495272,-1756
3495315,-1911
3495334,-2449
3495356,-2091
3495400,-1441
3495420,-1366
3495574,-1722
3495660,-2359
3495804,-2491
3495889,-1661
3495935,-1620
3495941,-882
3495984,-742
3496003,-1536
3496023,-1598
3496067,-1367
3496087,-1715
3496109,-2038
3496153,-1896
3496172,-1251
3496194,-1279
3496237,-1261
3496256,-839
3496278,-862
3496321,-1073
3496342,-1137
3496364,-905
3496407,-748
3496428,-825
3496448,-827
3496491,-861
3496512,-1437
3496534,-1513
3496577,-1314
3496598,-1417
3496619,-1659
3496663,-1524
3496682,-671
3496704,-574
3496747,-596
3496767,-448
3496805,-448
3496946,-587
3496993,-934
3497036,-497
3497042,-605
3497085,-625
3497102,-776
3497124,-861
3497166,-818
3497187,-820
3497209,-856
3497251,-669
3497272,-275
3497295,-450
3497337,-610
3497358,-254
3497380,-125
3497422,-246
3497443,-638
3497464,-636
3497507,-646
3497527,-1024
3497549,-978
3497592,-756
3497612,-852
3497634,-1006
3497677,-863
3497697,-318
3497719,-279
3497761,-305
3497782,-398
3497804,-439
3497846,-406
3497868,-363
3497890,-412
3497932,-466
3497953,-688
3498090,-777
3498173,-741
3498218,118
3498224,-136
3498266,-602
3498287,-1028
3498308,-777
3498351,-494
3498372,-738
3498393,-872
3498436,-656
3498456,-107
3498478,-208
3498520,-461
3498543,-821
3498564,-719
3498607,-445
3498628,-206
3498649,-275
3498692,-227
3498712,146
3498734,183
3498777,59
3498797,-479
3498819,-572
3498861,-414
3498882,-94
3498903,-111
3498946,-89
3498967,163
3498988,251
3499031,249
3499053,-45
3499074,-240
3499117,-433
3499223,-653
3499269,-363
3499345,216
3499390,-45
3499409,112
3499451,251
3499472,-174
3499494,-524
3499537,-611
3499557,-309
3499579,-274
3499621,-308
3499642,-223
3499664,-43
3499706,108
3499727,44
3499748,53
3499791,155
3499812,-60
3499833,-257
3499876,-271
3499897,-268
3499918,-392
3499961,-363
3499981,-71
3500003,-61
3500046,-63
3500066,123
3500089,93
3500132,-172
3500152,-688
3500174,-517
3500217,-252
3500237,-453
3500356,-452
3500439,63
3500484,1026
3500490,867
3500508,1089
3500551,1679
3500590,2828
3500595,3092
3500639,3332
3500657,4062
3500678,4436
3500723,4661
3500742,4254
3500764,3860
3500809,3564
3500826,2847
3500848,2212
3500893,1436
3500912,-149
3500934,-630
3500979,-811
3500998,-1084
3501019,-1276
3501064,-1270
3501082,-777
3501103,-574
3501148,-485
3501167,-603
3501189,-638
3501234,-589
3501253,-637
3501274,-699
3501320,-684
3501337,-764
3501359,-890
3501502,-865
3501551,-579
3501597,-327
3501608,-602
3501653,-539
3501673,-477
3501694,-512
3501739,-342
3501778,-46
3501823,-433
3501841,-23
3501862,31
3501907,-290
3501926,-826
3501948,-538
3501993,-242
3502012,-669
3502033,-736
3502078,-376
3502097,-37
3502119,-300
3502164,-391
3502181,6
3502204,148
3502249,234
3502266,261
3502288,146
3502333,67
3502352,311
3502373,463
3502418,373
3502437,-445
3502459,-503
3502504,-171
3502523,53
3502636,-247
3502724,525
3502770,280
3502775,107
3502794,189
3502837,178
3502857,-110
3502879,56
3502921,401
3502942,442
3502964,361
3503039,547
3503047,653
3503090,510
3503111,718
3503132,974
3503176,1229
3503196,1027
3503218,748
3503261,779
3503282,1313
3503302,1125
3503345,677
3503366,497
3503388,907
3503431,1191
3503452,634
3503473,353
3503516,442
3503537,773
3503557,580
3503600,289
3503621,336
3503642,748
3503784,1115
3503830,1184
3503875,365
3503893,-1
3503936,-483
3503956,-531
3503978,-247
3504021,-58
3504042,1
3504063,60
3504106,87
3504127,-94
3504148,-101
3504191,-152
3504212,-916
3504311,-1064
3504388,-132
3504434,-495
3504478,-706
3504484,-1128
3504527,-1005
3504548,-621
3504568,-640
3504611,-818
3504631,-1210
3504653,-1025
3504696,-577
3504717,-145
3504738,-281
3504781,-337
3504802,-60
3504913,119
3504997,-1046
3505042,-732
3505051,-676
3505073,-547
3505116,-441
3505137,-292
3505158,-93
3505201,66
3505222,-370
3505243,-593
3505286,-508
3505307,-203
3505329,-312
3505372,-499
3505392,-757
3505414,-634
3505457,-317
3505478,-88
3505499,-351
3505542,-581
3505580,-483
3505586,-269
3505629,-114
3505648,-327
3505669,-420
3505712,-310
3505733,-131
3505754,-258
3505798,-353
3505817,-257
3505838,-218
3505881,-249
3505902,-466
3505924,-398
3506065,-160
3506112,-169
3506157,-318
3506175,-567
3506218,-89
3506237,-269
3506258,-811
3506302,-892
3506322,-307
3506344,-473
3506387,-725
3506408,-445
3506430,-274
3506473,-335
3506492,-502
3506514,-318
3506557,-122
3506577,-84
3506599,-40
3506642,51
3506663,-24
3506684,-25
3506727,2
3506747,-452
3506905,-627
3506990,-407
3507035,-87
3507079,-34
3507191,-421
3507275,-138
3507320,-134
3507329,358
3507351,278
3507394,195
3507413,-177
3507435,-315
3507478,-184
3507498,76
3507520,-153
3507563,-373
3507583,-134
3507605,171
3507648,398
3507669,299
3507690,109
3507733,2
3507754,-86
3507775,-120
3507818,-139
3507839,-199
3507860,-138
3507903,15
3507924,195
3507945,245
3507988,350
3508009,287
3508031,44
3508074,-176
3508094,-379
3508116,-278
3508159,-42
3508179,186
3508217,109
3508358,44
3508405,17
3508449,-139
3508454,406
3508497,550
3508515,-126
3508536,-372
3508579,-202
3508600,-60
3508621,-622
3508664,-1195
3508685,-987
3508706,-530
3508749,-319
3508770,-364
3508791,11
3508834,514
3508855,347
3508876,-1
3508919,-41
3508940,-272
3508961,-855
3509004,-1244
3509025,-596
3509046,-221
3509089,-250
3509110,-530
3509131,0
3509174,720
3509195,501
3509216,-178
3509259,-407
3509280,390
3509302,649
3509345,795
3509365,1592
3509387,2148
3509562,2561
3509651,3132
3509698,1373
3509719,-270
3509764,-756
3509781,-312
3509803,-313
3509847,-819
3509868,-1548
3509888,-1119
3509932,-668
3509952,-1114
3509973,-1278
3510018,-963
3510037,-651
3510058,-987
3510103,-1048
3510122,-195
3510144,-177
3510188,-630
3510207,-1228
3510229,-863
3510273,-419
3510293,-497
3510314,-625
3510359,-512
3510378,-432
3510399,-562
3510444,-540
3510463,-443
3510484,-650
3510529,-821
3510548,-516
3510570,-221
3510713,-60
3510761,-553
3510839,-200
3510886,-475
3510902,74
3510946,-203
3510965,-505
3510987,-274
3511031,-144
3511050,-595
3511071,-566
3511116,-281
3511135,-391
3511157,-653
3511201,-529
3511220,298
3511242,335
3511286,131
3511305,-187
3511327,-130
3511371,-59
3511392,-404
3511412,-534
3511456,-353
3511475,206
3511497,171
3511541,94
3511560,435
3511582,649
3511626,628
3511645,272
3511667,447
3511711,772
3511731,609
3511845,392
3511928,191
3511972,649
3511981,896
3512003,885
3512046,889
3512066,1156
3512104,1261
3512147,1155
3512153,470
3512173,401
3512216,571
3512236,453
3512258,241
3512301,301
3512321,764
3512343,805
3512386,783
3512406,838
3512428,931
3512471,1041
3512491,939
3512513,775
3512556,658
3512576,470
3512598,380
3512640,340
3512661,219
3512683,181
3512725,203
3512746,177
3512768,71
3512810,-104
3512831,-627
3512854,-670
3512995,-494
3513041,-234
3513084,-604
3513104,-518
3513146,-561
3513167,-790
3513188,-709
3513231,-532
3513252,-638
3513273,-750
3513349,-628
3513357,-162
3513400,-227
3513420,-655
3513442,-809
3513484,-810
3513505,-867
3513527,-963
3513569,-958
3513590,-776
3513612,-561
3513654,-146
3513677,397
3513697,150
3513739,-222
3513762,-359
3513783,-269
3513826,-449
3513846,-1520
3513868,-1608
3513911,-1213
3513932,-653
3513952,-705
3513995,-660
3514015,-471
3514127,-564
3514210,-294
3514255,-401
3514266,-486
3514287,-641
3514330,-726
3514351,-733
3514372,-608
3514414,-394
3514435,-253
3514456,-267
3514532,-274
3514540,-520
3514583,-296
3514604,-299
3514625,-681
3514668,-831
3514689,-113
3514710,-14
3514753,-386
3514758,-985
3514776,-1178
3514796,-1016
3514839,-807
3514861,-1537
3514883,-1794
3514925,-1426
3514946,-533
3514968,-772
3515010,-1019
3515030,-300
3515129,6
3515272,-805
3515356,-360
3515400,-166
3515443,-593
3515449,-627
3515469,-427
3515511,-375
3515532,-733
3515553,-722
3515595,-510
3515616,-479
3515638,-692
3515680,-732
3515685,-590
3515703,-280
3515725,-168
3515799,-227
3515808,-306
3515850,-242
3515855,-393
3515873,-487
3515895,-474
3515937,-328
3515958,-589
3515979,-714
3516021,-455
3516026,-138
3516043,-36
3516066,-336
3516108,-604
3516129,-410
3516151,-333
3516193,-432
3516215,-494
3516235,-265
3516277,-87
3516282,-208
3516300,-350
3516409,-416
3516491,-262
3516535,-465
3516551,-287
3516572,-320
3516614,-407
3516635,-565
3516657,-513
3516699,-351
3516704,-251
3516722,-129
3516742,-156
3516784,-200
3516789,-297
3516827,-230
3516832,-174
3516874,-186
3516893,-734
3516914,-847
3516957,-635
3516977,-467
3516999,-668
3517041,-697
3517062,-271
3517083,-152
3517125,-51
3517130,40
3517149,220
3517170,216
3517212,130
3517233,241
3517254,394
3517297,404
3517302,241
3517320,380
3517342,875
3517384,1561
3517405,2058
3517426,2199
3517568,2694
3517615,3056
3517660,1659
3517676,664
3517720,136
3517739,-744
3517761,-982
3517805,-1092
3517825,-1335
3517847,-1430
3517891,-1378
3517910,-1012
3517931,-875
3518008,-859
3518016,-1106
3518060,-862
3518079,-660
3518100,-765
3518145,-750
3518164,-395
3518185,-222
3518229,-118
3518250,-455
3518270,-671
3518314,-589
3518334,-103
3518356,-185
3518399,-396
3518418,-278
3518440,53
3518484,281
3518504,20
3518526,-136
3518569,-166
3518588,-307
3518700,-344
3518786,-35
3518831,-187
3518839,-209
3518861,-265
3518904,-344
3518925,-312
3518947,-293
3518990,-284
3519009,22
3519031,344
3519075,540
3519094,236
3519115,160
3519159,219
3519197,-118
3519202,-267
3519246,-86
3519265,211
3519287,-47
3519330,-203
3519349,359
3519371,636
3519415,612
3519435,84
3519457,87
3519501,328
3519520,480
3519541,242
3519585,92
3519604,385
3519626,598
3519669,660
3519690,565
3519711,719
3519854,873
3519901,848
3519947,400
3519961,1149
3520005,1273
3520025,903
3520047,748
3520091,743
3520110,665
3520131,596
3520175,679
3520195,937
3520217,917
3520260,858
3520281,851
3520301,930
3520344,958
3520365,510
3520386,306
3520462,330
3520471,899
3520514,927
3520534,408
3520556,303
3520598,538
3520619,672
3520640,244
3520683,-77
3520705,251
3520726,413
3520768,296
3520789,-37
3520811,154
3520853,354
3520858,182
3520876,-156
3520988,-435
3521070,-898
3521114,-520
3521125,-225
3521147,-206
3521189,-168
3521194,-141
3521212,-34
3521233,-77
3521275,-209
3521296,-379
3521318,-369
3521360,-383
3521365,-544
3521383,-583
3521405,-522
3521447,-340
3521467,-336
3521489,-452
3521531,-514
3521536,-680
3521574,-815
3521617,-834
3521637,-490
3521659,-481
3521701,-480
3521706,-467
3521724,-268
3521746,-93
3521788,55
3521808,23
3521830,6
3521872,59
3521877,-27
3521895,-151
3521916,-289
3521959,-203
3521979,-38
3522002,-272
3522143,-502
3522188,-408
3522232,-143
3522252,-254
3522294,-226
3522315,-280
3522336,-347
3522379,-336
3522399,-459
3522421,-493
3522463,-296
3522468,-50
3522486,97
3522508,-126
3522550,-431
3522571,-376
3522592,-75
3522634,98
3522639,-86
3522658,-349
3522696,-581
3522738,-591
3522744,-447
3522764,-474
3522806,-573
3522827,-923
3522848,-819
3522891,-504
3522896,-369
3522913,-379
3522934,-403
3522977,-112
3522982,192
3523000,220
3523022,-228
3523064,-592
3523084,-88
3523106,12
3523148,-483
3523169,-1515
3523280,-1126
3523364,-1104
3523408,-493
3523419,-418
3523441,-353
3523483,-329
3523504,-321
3523527,-322
3523569,-435
3523590,-1039
3523612,-1070
3523654,-820
3523675,-820
3523696,-1124
3523738,-1115
3523759,-238
3523781,-77
3523856,-198
3523865,-94
3523907,-65
3523928,-612
3523951,-692
3523993,-537
3524014,-453
3524035,-403
3524077,-181
3524082,-97
3524100,-189
3524122,-428
3524164,-414
3524184,-110
3524206,-350
3524248,-672
3524253,-798
3524271,-515
3524293,-249
3524433,-203
3524479,-298
3524522,-649
3524543,-893
3524584,-903
3524589,-950
3524608,-962
3524628,-1022
3524670,-896
3524675,-727
3524693,-595
3524715,-736
3524756,-901
3524761,-929
3524780,-624
3524801,-365
3524843,-331
3524882,-849
3524887,-811
3524929,-508
3524949,-338
3524971,-474
3525013,-442
3525035,-133
3525056,-31
3525098,70
3525119,-5
3525140,-88
3525182,-3
3525187,115
3525205,268
3525227,267
3525268,352
3525274,576
3525292,1050
3525314,1487
3525356,1829
3525377,2328
3525398,2686
3525441,3071
3525462,3122
3525572,2814
3525657,1150
3525702,-508
3525712,-869
3525733,-1419
3525777,-1754
3525797,-1473
3525818,-1333
3525861,-1320
3525881,-1266
3525982,-1087
3526028,-618
3526072,-1469
3526149,-1224
3526155,-1685
3526199,-1553
3526216,-657
3526238,-548
3526281,-599
3526302,-371
3526323,-292
3526366,-473
3526387,-1036
3526409,-884
3526452,-614
3526473,-778
3526494,-853
3526537,-630
3526556,-420
3526578,-562
3526719,-522
3526766,-641
3526811,-957
3526828,-1078
3526871,-907
3526892,-791
3526914,-827
3526957,-863
3526978,-983
3526999,-809
3527042,-431
3527061,-254
3527083,-471
3527126,-454
3527147,96
3527168,71
3527211,-260
3527232,-879
3527254,-815
3527297,-619
3527335,-709
3527340,-753
3527384,-536
3527403,-50
3527424,-22
3527467,27
3527488,93
3527509,-95
3527552,-370
3527573,-545
3527594,-292
3527638,-16
3527658,-282
3527678,-456
3527721,-240
3527742,481
3527854,423
3527938,305
3527984,473
3527993,201
3528015,231
3528058,508
3528077,775
3528099,573
3528142,367
3528163,210
3528184,274
3528227,398
3528248,163
3528269,-179
3528312,-383
3528333,-77
3528355,219
3528398,386
3528418,149
3528440,114
3528483,286
3528502,370
3528540,103
3528582,-181
3528588,-562
3528610,-646
3528652,-686
3528672,-1045
3528694,-1168
3528736,-963
3528741,-674
3528759,-499
3528781,-731
3528822,-1052
3528843,-834
3528866,-544
3529006,-559
3529051,-1189
3529094,-1369
3529115,-1371
3529157,-1431
3529163,-1351
3529179,-1130
3529201,-1042
3529243,-1013
3529248,-1128
3529267,-1247
3529288,-1439
3529330,-1480
3529351,-1150
3529373,-1045
3529415,-1047
3529436,-1028
3529457,-875
3529499,-705
3529504,-720
3529523,-718
3529544,-748
3529619,-759
3529627,-975
3529669,-711
3529674,-552
3529693,-550
3529714,-734
3529756,-751
3529777,-542
3529798,-754
3529840,-1099
3529845,-1325
3529864,-1099
3529886,-708
3529927,-419
3529948,-789
3529970,-908
3530012,-665
3530017,-377
3530035,-259
3530145,-569
3530227,-246
3530271,-893
3530285,11
3530306,-60
3530348,-461
3530370,-742
3530392,-500
3530434,-402
3530455,-813
3530476,-665
3530518,-281
3530541,-431
3530562,-797
3530604,-790
3530625,-314
3530646,-436
3530721,-632
3530731,-416
3530773,-275
3530794,-425
3530815,-649
3530857,-750
3530880,-442
3530901,-338
3530943,-483
3530964,-931
3530985,-727
3531028,-415
3531048,-910
3531070,-1279
3531112,-1171
3531117,-829
3531136,-549
3531157,-687
3531298,-956
3531344,-524
3531387,-664
3531406,-559
3531448,-311
3531453,-194
3531472,-214
3531493,-453
3531535,-591
3531556,-421
3531577,-369
3531619,-471
3531624,-751
3531643,-858
3531664,-771
3531706,-462
3531727,-230
3531748,-475
3531790,-756
3531828,-1019
3531834,-861
3531875,-625
3531880,-592
3531899,-653
3531920,-719
3531962,-462
3531984,155
3532004,64
3532046,-111
3532051,-216
3532069,-127
3532091,-206
3532132,-513
3532137,-981
3532156,-1114
3532177,-890
3532219,-495
3532224,-417
3532242,-585
3532262,-810
3532304,-681
3532309,-354
3532327,-29
3532439,-66
3532520,-16
3532563,161
3532577,207
3532599,-39
3532640,-122
3532645,1
3532664,252
3532685,188
3532727,-122
3532732,-463
3532750,-371
3532772,-55
3532846,208
3532856,-181
3532897,-172
3532918,-265
3532941,-119
3532983,160
3533003,-308
3533025,-583
3533066,-96
3533071,805
3533090,1365
3533111,931
3533153,86
3533158,-350
3533176,50
3533198,619
3533240,768
3533260,16
3533282,47
3533323,395
3533329,595
3533347,668
3533368,715
3533410,976
3533432,1237
3533454,1094
3533595,1186
3533641,3637
3533686,4066
3533703,3710
3533747,3519
3533768,2244
3533788,1488
3533832,1044
3533852,250
3533874,-304
3533917,-633
3533936,-744
3533974,-903
3534018,-999
3534024,-401
3534044,-43
3534087,-9
3534108,-593
3534129,-611
3534173,-394
3534192,-435
3534213,-640
3534257,-657
3534277,-467
3534299,-463
3534342,-415
3534363,-140
3534384,-4
3534427,81
3534448,-118
3534470,-194
3534513,-66
3534532,266
3534553,141
3534597,-108
3534617,-280
3534729,26
3534813,266
3534859,-106
3534868,-425
3534890,-406
3534933,-220
3534952,-118
3534974,-237
3535017,-175
3535038,367
3535059,419
3535102,285
3535122,129
3535145,214
3535221,243
3535229,-142
3535272,-55
3535291,-274
3535313,-444
3535356,-360
3535377,-34
3535398,-58
3535442,-86
3535462,-36
3535484,-25
3535527,12
3535548,64
3535569,44
3535612,-4
3535631,-179
3535653,-101
3535696,112
3535717,206
3535738,110
3535880,176
3535927,150
3535972,62
3535988,-22
3536031,284
3536052,565
3536073,526
3536116,696
3536137,1132
3536158,961
3536201,653
3536222,461
3536244,574
3536287,583
3536307,84
3536329,79
3536372,411
3536392,775
3536413,492
3536489,214
3536497,241
3536539,271
3536560,194
3536581,307
3536623,527
3536628,589
3536647,547
3536668,361
3536710,270
3536731,96
3536831,-183
3536876,-259
3537017,-27
3537101,-725
3537145,-522
3537151,-733
3537169,-1294
3537211,-1490
3537232,-701
3537254,-523
3537296,-743
3537301,-1168
3537319,-1275
3537339,-1116
3537381,-816
3537386,-733
3537405,-763
3537426,-924
3537468,-1023
3537489,-1075
3537511,-955
3537553,-761
3537558,-747
3537576,-761
3537598,-750
3537640,-563
3537678,-809
3537683,-1302
3537725,-1458
3537746,-784
3537768,-782
3537810,-1051
3537830,-746
3537852,-96
3537894,271
3537899,38
3537917,-312
3537939,-472
3537981,-353
3538001,-748
3538023,-1118
3538163,-1116
3538209,-280
3538252,48
3538273,-362
3538315,-276
3538338,-500
3538358,-775
3538400,-747
3538405,-434
3538423,23
3538445,150
3538487,18
3538509,-148
3538530,-32
3538572,6
3538593,-448
3538614,-544
3538656,-498
3538679,-767
3538700,-788
3538743,-454
3538763,-192
3538785,-608
3539154,-856
3539418,-485
3539543,-382
3539626,-824
3539670,-683
3539676,-1386
3539694,-1478
3539737,-1186
3539758,-866
3539779,-1143
3539821,-1344
3539842,-1019
3539864,-725
3539906,-538
3539928,-662
3539949,-757
3539991,-760
3540013,-704
3540035,-617
3540077,-518
3540097,-913
3540119,-1141
3540161,-1043
3540182,-741
3540203,-934
3540245,-1092
3540251,-1057
3540269,-718
3540291,-466
3540333,-379
3540354,-404
3540375,-353
3540417,-370
3540422,-616
3540439,-773
3540551,-757
3540666,-447
3540710,-848
3540754,-923
3540773,-1049
3540795,-767
3540837,-282
3540858,193
3540879,56
3540921,-11
3540943,289
3540965,382
3541007,295
3541028,-268
3541049,-412
3541091,-419
3541114,-609
3541135,-651
3541177,-520
3541198,-598
3541220,-825
3541262,-787
3541283,-48
3541304,133
3541346,70
3541351,-156
3541370,-232
3541391,-250
3541434,-177
3541454,-125
3541476,-216
3541518,-382
3541539,-777
3541560,-678
3541701,-398
3541747,-309
3541790,-101
3541811,-343
3541886,-457
3541894,13
3541936,74
3541941,-75
3541960,-107
3541981,10
3542023,330
3542044,722
3542065,795
3542108,971
3542113,1096
3542131,1268
3542151,1480
3542194,1988
3542215,3246
3542237,3489
3542280,3524
3542301,3665
3542323,3791
3542367,3738
3542386,2756
3542408,2197
3542452,1781
3542470,791
3542492,54
3542536,-656
3542555,-1444
3542577,-1521
3542621,-1608
3542640,-2059
3542662,-1921
3542707,-1373
3542726,-563
3542836,-584
3542923,-892
3542970,-1303
3542976,-649
3543014,-241
3543059,-250
3543082,-726
3543127,-406
3543145,-778
3543166,-1168
3543211,-1171
3543230,-685
3543252,-735
3543297,-903
3543316,-1165
3543337,-1150
3543382,-969
3543400,-521
3543421,-496
3543466,-592
3543486,-777
3543507,-671
3543552,-540
3543570,-852
3543591,-1034
3543636,-941
3543655,-478
3543677,-340
3543722,-242
3543741,-362
3543762,-479
3543807,-459
3543825,-401
3543846,-544
3543990,-641
3544038,-449
3544084,-647
3544097,-804
3544142,-664
3544161,-706
3544199,-743
3544244,-524
3544265,-285
3544310,-450
3544329,-592
3544351,-647
3544396,-604
3544415,-162
3544437,77
3544482,212
3544499,343
3544521,571
3544566,822
3544585,536
3544606,163
3544651,-1
3544670,132
3544691,144
3544735,100
3544755,69
3544777,249
3544820,460
3544839,383
3544862,382
3544905,631
3544924,748
3544946,369
3544989,180
3545010,843
3545123,1035
3545207,413
3545252,183
3545259,573
3545281,244
3545324,-23
3545345,241
3545366,267
3545409,37
3545430,-228
3545467,-1
3545510,110
3545516,-403
3545536,-284
3545579,171
3545600,14
3545622,-555
3545665,-746
3545685,-357
3545707,-531
3545750,-923
3545771,-1373
3545792,-1215
3545836,-901
3545855,-730
3545877,-947
3545920,-1035
3545941,-494
3545961,-294
3546005,-442
3546025,-1072
3546047,-919
3546091,-513
3546110,-313
3546133,-442
3546275,-406
3546322,-433
3546367,-1074
3546383,-623
3546426,-124
3546445,-607
3546467,-1189
3546511,-1201
3546531,-108
3546553,31
3546596,-194
3546616,-521
3546654,-291
3546697,-24
3546703,-317
3546723,-672
3546766,-835
3546786,-808
3546807,-827
3546851,-746
3546872,-112
3546893,188
3546937,237
3546956,-118
3546978,-28
3547021,179
3547040,-275
3547062,-555
3547105,-364
3547126,155
3547148,-98
3547191,-336
3547212,14
3547233,113
3547277,-132
3547296,-679
3547409,-394
3547494,-297
3547540,-286
3547546,-61
3547646,28
3547692,-112
3547737,-118
3547781,-96
3547798,56
3547819,-141
3547863,-269
3547883,-157
3547905,-23
3547948,109
3548106,-7
3548191,-234
3548236,-3
3548281,-183
3548300,-207
3548321,-90
3548364,-127
3548385,-654
3548406,-656
3548548,-338
3548595,32
3548639,112
3548656,-560
3548699,-866
3548720,-582
3548742,-331
3548785,-189
3548805,-145
3548827,-104
3548870,21
3548890,400
3548912,501
3548955,382
3548976,-236
3548996,-137
3549039,278
3549059,357
3549081,-38
3549124,-211
3549145,157
3549166,207
3549209,110
3549230,-62
3549251,47
3549294,234
3549315,296
3549337,179
3549380,106
3549418,-5
3549423,-51
3549466,-31
3549485,20
3549506,61
3549549,130
3549570,13
3549682,-148
3549766,-457
3549811,-228
3549820,-326
3549842,-224
3549885,101
3549906,155
3549927,-178
3549970,-310
3549991,-39
3550012,-16
3550056,-31
3550075,73
3550098,69
3550141,28
3550161,150
3550183,264
3550226,192
3550245,-295
3550267,-190
3550310,144
3550331,152
3550352,-126
3550396,-138
3550416,470
3550438,673
3550481,743
3550500,1036
3550522,1487
3550566,2071
3550585,2840
3550607,3098
3550684,3456
3550691,3949
3550835,4016
3550884,1611
3550932,-206
3550942,-1099
3550988,-1442
3551004,-1510
3551026,-1215
3551072,-854
3551090,-655
3551111,-565
3551157,-295
3551174,-219
3551196,-595
3551242,-932
3551261,-1082
3551281,-1071
3551327,-1075
3551346,-1109
3551367,-944
3551413,-697
3551430,-692
3551452,-876
3551498,-957
3551515,-857
3551537,-727
3551582,-539
3551600,-361
3551621,-374
3551667,-302
3551686,-39
3551707,-29
3551753,-167
3551770,-756
3551792,-809
3551969,-613
3552060,-155
3552108,-167
3552124,-477
3552170,-106
3552187,-17
3552209,-298
3552254,-379
3552273,-318
3552293,-456
3552339,-532
3552358,-383
3552380,-271
3552425,-68
3552442,339
3552464,258
3552510,69
3552527,210
3552549,500
3552594,541
3552612,-128
3552635,-84
3552681,256
3552698,171
3552720,-56
3552765,81
3552783,382
3552804,118
3552850,-27
3552867,487
3552889,627
3552934,546
3552953,355
3552975,428
3553119,541
3553168,526
3553215,763
3553224,452
3553302,876
3553309,537
3553353,297
3553372,829
3553393,874
3553437,704
3553458,780
3553479,1001
3553523,1033
3553542,634
3553564,672
3553608,860
3553627,658
3553648,346
3553692,185
3553711,319
3553733,508
3553777,622
3553798,44
3553819,-255
3553863,-191
3553882,33
3553903,-228
3553947,-474
3553968,-437
3553989,-377
3554033,-424
3554052,-609
3554074,-590
3554118,-537
3554137,-697
3554252,-812
3554337,-765
3554383,-1065
3554389,-1074
3554409,-1149
3554452,-1100
3554473,-963
3554511,-848
3554555,-582
3554561,-298
3554579,-446
3554623,-500
3554642,-130
3554663,-149
3554707,-445
3554728,-1013
3554749,-888
3554793,-670
3554812,-925
3554834,-1042
3554878,-784
3554898,-192
3554920,-365
3554963,-615
3554983,-504
3555004,-269
3555048,-220
3555068,-753
3555088,-763
3555132,-462
3555153,-88
3555174,-208
3555218,-318
3555238,-590
3555260,-759
3555402,-809
3555450,-996
3555495,-354
3555509,-641
3555553,-404
3555572,-307
3555594,-717
3555638,-1053
3555657,-1073
3555695,-1043
3555739,-1055
3555745,-807
3555765,-546
3555809,-362
3555829,-326
3555850,-243
3555894,-196
3555913,-652
3555935,-761
3555979,-622
3555998,-694
3556020,-851
3556064,-685
3556083,-240
3556104,-504
3556148,-803
3556167,-585
3556189,-374
3556233,-442
3556254,-1043
3556275,-972
3556319,-615
3556338,-338
3556360,-524
3556403,-631
3556424,-499
3556536,-385
3556620,-522
3556666,-746
3556673,-460
3556695,-326
3556738,-395
3556759,-583
3556780,-359
3556824,-139
3556862,-551
3556867,-710
3556911,-520
3556928,-401
3556950,-687
3556993,-801
3557014,-514
3557035,-591
3557079,-800
3557099,-764
3557119,-467
3557163,-228
3557183,-194
3557205,-88
3557248,51
3557269,-386
3557290,-613
3557334,-490
3557354,-386
3557376,-716
3557419,-848
3557438,-309
3557460,-202
3557503,-292
3557524,-228
3557545,-108
3557687,-199
3557734,-83
3557778,-323
3557796,82
3557839,13
3557860,-378
3557880,-306
3557923,5
3557943,208
3557965,26
3558008,-52
3558046,-117
3558052,-259
3558095,-278
3558114,-84
3558135,-163
3558179,-297
3558199,-317
3558221,-341
3558264,-466
3558283,-354
3558305,13
3558348,140
3558369,-843
3558469,-970
3558515,-441
3558560,-439
3558604,-236
3558620,-483
3558641,-665
3558685,-786
3558705,-706
3558817,-417
3558902,9
3558947,-496
3558955,-747
3558976,-605
3559020,-534
3559040,-373
3559062,79
3559105,513
3559126,227
3559147,211
3559191,810
3559210,2191
3559232,2433
3559276,2681
3559295,3511
3559317,3832
3559395,4084
3559401,3326
3559448,2471
3559465,1348
3559485,956
3559531,266
3559550,-1449
3559570,-1557
3559616,-1190
3559634,-1255
3559655,-1618
3559701,-1520
3559719,-568
3559740,-629
3559786,-1044
3559804,-1306
3559825,-1055
3559970,-992
3560020,-962
3560068,-1224
3560076,-1109
3560123,-1100
3560140,-1022
3560162,-1011
3560208,-986
3560224,-964
3560246,-856
3560293,-646
3560310,-514
3560332,-701
3560378,-853
3560396,-573
3560417,-330
3560463,-313
3560479,-847
3560501,-804
3560580,-496
3560586,-637
3560632,-504
3560648,-45
3560670,-257
3560716,-587
3560733,-744
3560755,-616
3560801,-568
3560819,-1001
3560840,-1181
3560887,-1079
3560904,-435
3560926,-355
3560972,-578
3560988,-1091
3561103,-806
3561194,-429
3561243,-77
3561259,-32
3561305,-192
3561323,-459
3561344,-353
3561391,-194
3561408,-359
3561430,-407
3561476,-132
3561494,534
3561515,455
3561562,194
3561578,68
3561599,332
3561645,561
3561663,276
3561684,169
3561730,358
3561749,635
3561789,414
3561834,171
3561853,186
3561897,317
3561918,238
3561939,167
3561983,261
3562002,683
3562024,934
3562068,1189
3562087,1055
3562109,727
3562251,589
3562299,35
3562345,417
3562359,-166
3562403,-202
3562422,70
3562444,78
3562488,64
3562508,22
3562530,-43
3562574,-116
3562593,-278
3562614,-201
3562658,47
3562677,205
3562699,-31
3562742,-233
3562763,-241
3562785,-203
3562828,-250
3562848,-484
3562869,-528
3562913,-513
3562933,-625
3562955,-623
3562999,-568
3563037,-838
3563042,-909
3563086,-687
3563104,-471
3563125,-806
3563169,-1076
3563188,-795
3563210,-545
3563254,-448
3563273,-516
3563386,-501
3563472,-344
3563518,-651
3563524,-527
3563544,-765
3563588,-823
3563609,-270
3563630,-85
3563674,-80
3563693,-375
3563714,-556
3563759,-733
3563778,-875
3563799,-714
3563843,-517
3563862,-592
3563884,-509
3563928,-157
3563949,299
3563971,249
3564015,251
3564034,84
3564055,-272
3564099,-592
3564119,-762
3564140,-793
3564185,-890
3564223,-940
3564228,-593
3564272,-106
3564288,-76
3564310,-566
3564354,-933
3564373,-726
3564395,-435
3564538,-325
3564586,561
3564632,-431
3564646,-512
3564690,-708
3564709,-1192
3564731,-957
3564775,-526
3564794,-546
3564816,-616
3564860,-216
3564879,280
3564900,-276
3564944,-729
3564963,34
3564985,377
3565028,120
3565049,-568
3565071,-191
3565115,278
3565134,-110
3565155,-460
3565199,-447
3565218,-268
3565240,-417
3565284,-519
3565303,-610
3565325,-652
3565369,-542
3565389,-175
3565427,-142
3565471,-154
3565477,33
3565495,214
3565539,308
3565558,-5
3565671,-138
3565757,-609
3565803,-54
3565809,327
3565830,454
3565875,519
3565894,282
3565915,178
3565959,258
3565980,251
3566000,-26
3566044,-182
3566064,116
3566086,138
3566130,-120
3566149,-610
3566170,-401
3566215,-184
3566234,-749
3566255,-951
3566299,-670
3566320,10
3566341,-78
3566385,-265
3566404,-480
3566426,-419
3566470,-212
3566489,-135
3566510,-330
3566554,-361
3566575,267
3566596,480
3566673,449
3566679,-63
3566821,-139
3566869,-82
3566914,992
3566930,483
3566974,545
3566993,1439
3567015,1350
3567060,1005
3567079,1385
3567100,2086
3567145,2543
3567163,2388
3567184,2436
3567230,2780
3567249,3294
3567271,3299
3567317,3202
3567333,2382
3567354,1849
3567401,1485
3567418,630
3567440,-59
3567486,-657
3567503,-1136
3567525,-1092
3567571,-973
3567588,-888
3567610,-897
3567656,-870
3567673,-863
3567695,-878
3567741,-841
3567758,-755
3567780,-674
3567825,-556
3567963,-445
3568053,-817
3568101,-514
3568114,-393
3568160,-246
3568177,-128
3568199,-90
3568244,-36
3568262,-323
3568283,-414
3568329,-213
3568346,172
3568368,-33
3568414,-235
3568433,55
3568454,154
3568500,-79
3568517,-854
3568539,-664
3568585,-222
3568602,-438
3568624,-763
3568670,-531
3568687,457
3568709,267
3568755,-133
3568772,-25
3568793,207
3568839,103
3568857,-260
3568878,124
3568924,574
3568943,109
3568965,-95
3569109,282
3569160,289
3569207,-335
3569292,160
3569372,74
3569421,284
3569469,312
3569516,638
3569527,857
3569549,736
3569595,535
3569611,272
3569632,350
3569679,461
3569696,262
3569718,296
3569764,620
3569781,952
3569803,712
3569849,612
3569867,1006
3569889,980
3569935,700
3569952,249
3569974,433
3570019,744
3570037,708
3570058,378
3570104,141
3570121,289
3570238,465
3570327,372
3570374,57
3570393,-174
3570437,-99
3570456,-330
3570477,-457
3570521,-342
3570542,-191
3570563,-429
3570607,-592
3570626,-495
3570664,-524
3570707,-625
3570713,-650
3570733,-598
3570777,-656
3570796,-808
3570817,-620
3570861,-399
3570882,-843
3570903,-1200
3570947,-1281
3570966,-1110
3570988,-1032
3571031,-900
3571052,-901
3571074,-998
3571117,-882
3571136,-325
3571158,-348
3571201,-606
3571222,-972
3571243,-794
3571386,-542
3571433,-426
3571477,-244
3571493,-739
3571537,-1166
3571556,-963
3571578,-496
3571621,-194
3571642,-424
3571663,-443
3571707,-150
3571727,272
3571749,14
3571793,-378
3571812,-641
3571849,-434
3571893,-249
3571899,-466
3571919,-419
3571962,-65
3571981,258
3572003,22
3572046,-116
3572067,-115
3572088,-327
3572132,-612
3572153,-693
3572174,-486
3572218,-325
3572237,-477
3572258,-489
3572302,-279
3572323,-85
3572344,-361
3572388,-621
3572407,-319
3572520,-12
3572605,-12
3572651,-552
3572657,25
3572680,-289
3572724,-817
3572743,-734
3572764,-315
3572808,-194
3572827,-656
3572849,-509
3572893,-120
3572912,77
3572933,28
3572977,122
3572998,-71
3573019,-352
3573095,-338
3573104,-60
3573147,-359
3573166,-308
3573188,-44
3573231,19
3573252,-451
3573273,-527
3573317,-453
3573336,-546
3573358,-494
3573401,-212
3573422,-236
3573443,-670
3573487,-848
3573506,-163
3573529,-16
3573671,-314
3573718,-256
3573763,-378
3573778,214
3573822,515
3573842,227
3573864,-223
3573907,-385
3573926,4
3573948,10
3573991,-195
3574012,-665
3574033,-687
3574077,-489
3574097,13
3574119,-8
3574162,-207
3574183,-415
3574204,-130
3574248,169
3574286,-108
3574291,-286
3574335,-219
3574352,-270
3574374,-496
3574417,-555
3574436,-340
3574458,-421
3574501,-617
3574522,-720
3574544,-393
3574587,16
3574607,-51
3574629,-262
3574672,-135
3574693,277
3574805,-65
3574889,-459
3574934,-411
3574942,-345
3574964,-423
3575007,-249
3575028,85
3575049,-46
3575092,-170
3575113,-29
3575134,124
3575177,232
3575198,205
3575220,348
3575263,756
3575282,1559
3575304,1835
3575348,2204
3575368,3083
3575388,3374
3575433,3589
3575452,3765
3575490,3628
3575536,3324
3575558,1513
3575603,917
3575621,-24
3575642,-460
3575688,-939
3575707,-1701
3575729,-1633
3575774,-1349
3575792,-1159
3575813,-1072
3575957,-800
3576006,-516
3576054,-1643
3576063,-874
3576109,-787
3576126,-1133
3576148,-910
3576194,-495
3576213,-381
3576234,-447
3576280,-309
3576298,-474
3576319,-913
3576365,-1141
3576382,-781
3576404,-661
3576450,-730
3576467,-778
3576489,-438
3576535,-7
3576552,-12
3576573,-285
3576619,-328
3576637,89
3576674,109
3576720,-123
3576726,-922
3576743,-982
3576789,-762
3576806,-916
3576828,-1385
3576874,-1590
3576892,-880
3576913,-478
3576959,-296
3576977,-254
3577092,-136
3577182,44
3577230,-553
3577248,-3
3577293,-164
3577311,-575
3577332,-400
3577378,-114
3577397,-222
3577417,-272
3577463,12
3577482,450
3577504,287
3577550,169
3577567,366
3577588,441
3577635,481
3577652,291
3577673,55
3577719,-77
3577737,263
3577758,411
3577804,280
3577822,-104
3577843,228
3577889,726
3577928,763
3577974,736
3577990,778
3578012,546
3578058,496
3578076,608
3578097,375
3578242,130
3578291,262
3578337,757
3578348,647
3578392,505
3578411,213
3578432,160
3578477,207
3578496,123
3578517,-61
3578561,-218
3578580,-289
3578602,-100
3578646,178
3578667,105
3578688,-116
3578732,-108
3578751,112
3578773,-83
3578817,-397
3578836,-646
3578858,-525
3578902,-445
3578921,-808
3578942,-867
3578986,-600
3579005,-348
3579027,-666
3579071,-866
3579092,-365
3579113,-208
3579158,-406
3579196,-871
3579201,-696
3579246,-549
3579262,-1232
3579375,-1453
3579461,-1388
3579508,-851
3579514,-761
3579532,-954
3579577,-1028
3579596,-545
3579618,-390
3579662,-480
3579681,-780
3579703,-655
3579747,-480
3579766,-656
3579788,-707
3579832,-560
3579851,-526
3579873,-666
3579917,-564
3579936,123
3579958,182
3580002,-68
3580022,-671
3580121,-527
3580168,-1161
3580214,-307
3580259,-851
3580273,-522
3580295,-148
3580339,-151
3580358,-783
3580380,-700
3580522,-446
3580603,-602
3580650,-282
3580696,-182
3580712,-105
3580756,-365
3580777,-571
3580797,-502
3580841,-500
3580860,-634
3580882,-550
3580926,-449
3580947,-648
3580967,-573
3581011,-274
3581030,-302
3581052,-635
3581096,-732
3581117,-453
3581139,-585
3581183,-813
3581202,-714
3581222,-489
3581266,-479
3581287,-924
3581308,-736
3581352,-275
3581371,-439
3581393,-1100
3581437,-1413
3581456,-759
3581478,-628
3581522,-900
3581541,-1366
3581655,-1069
3581740,-1110
3581787,-735
3581825,-465
3581870,-638
3581875,-667
3581897,-730
3581941,-818
3581962,-828
3581981,-807
3582025,-863
3582046,-977
3582067,-755
3582111,-478
3582130,-762
3582152,-1071
3582196,-1094
3582216,-706
3582237,-532
3582280,-407
3582301,-557
3582323,-630
3582366,-509
3582385,-576
3582407,-966
3582451,-1230
3582471,-910
3582493,-687
3582537,-628
3582556,-541
3582577,-248
3582621,5
3582642,-490
3582663,-841
3582805,-876
3582853,-922
3582898,-582
3582912,-1090
3582956,-925
3582977,-646
3583151,-824
3583239,-1179
3583285,-933
3583329,-976
3583375,-912
3583392,-828
3583414,-946
3583457,-1031
3583478,-1033
3583498,-938
3583542,-719
3583561,-350
3583583,-379
3583627,-488
3583647,-463
3583669,-205
3583713,53
3583733,99
3583753,440
3583797,1228
3583818,2610
3583931,2853
3584019,2944
3584067,1174
3584087,-500
3584133,-1074
3584152,-1633
3584174,-1576
3584220,-1591
3584237,-2149
3584257,-2075
3584303,-1636
3584321,-1468
3584343,-1795
3584389,-1866
3584406,-1479
3584444,-1543
3584491,-1704
3584512,-1688
3584558,-1635
3584576,-1473
3584598,-1336
3584644,-1285
3584661,-1644
3584683,-1654
3584729,-1417
3584745,-1140
3584767,-1173
3584813,-1100
3584830,-860
3584852,-890
3584898,-961
3584915,-1242
3584937,-1374
3585082,-1430
3585131,-1454
3585179,-1542
3585188,-869
3585234,-975
3585252,-1385
3585273,-1073
3585319,-708
3585336,-1348
3585358,-1702
3585404,-1483
3585422,-1118
3585443,-1639
3585489,-2050
3585507,-1349
3585527,-854
3585605,-735
3585612,-818
3585657,-396
3585675,-363
3585696,-796
3585742,-1136
3585761,-1220
3585781,-1199
3585827,-1290
3585846,-1613
3585866,-1426
3585912,-998
3585931,-683
3585953,-824
3585998,-812
3586016,-586
3586037,-658
3586083,-776
3586101,-893
3586214,-863
3586304,-990
3586352,-429
3586372,-899
3586417,-552
3586434,-524
3586456,-852
3586500,-892
3586519,-473
3586541,-571
3586584,-756
3586605,-670
3586626,-563
3586670,-583
3586690,-772
3586712,-795
3586755,-845
3586794,-1124
3586799,-1048
3586842,-854
3586860,-1152
3586881,-1413
3586925,-1320
3586945,-762
3586967,-911
3587010,-1339
3587029,-2003
3587051,-1821
3587094,-1412
3587115,-1266
3587136,-1539
3587180,-1637
3587200,-1396
3587222,-1390
3587364,-1487
3587411,-2545
3587456,-2477
3587472,-2617
3587515,-2585
3587535,-2514
3587557,-2377
3587600,-2136
3587621,-2268
3587641,-2527
3587684,-2497
3587705,-2103
3587726,-2242
3587769,-2482
3587790,-2536
3587811,-2415
3587854,-2338
3587875,-2380
3587913,-2410
3587956,-2450
3587961,-2692
3587982,-2674
3588024,-2507
3588045,-2407
3588067,-2537
3588109,-2571
3588130,-2159
3588152,-1923
3588195,-1906
3588215,-2621
3588237,-2671
3588280,-2283
3588300,-1948
3588322,-2316
3588365,-2592
3588386,-2425
3588499,-2282
3588582,-2111
3588627,-1641
3588636,-1991
3588658,-1977
3588700,-1863
3588721,-2144
3588743,-2317
3588786,-2225
3588806,-1910
3588826,-1900
3588869,-1839
3588890,-1877
3588912,-2181
3588954,-2449
3588976,-2238
3589015,-1977
3589057,-1946
3589063,-2371
3589082,-2125
3589124,-1545
3589145,-1381
3589167,-1938
3589209,-2321
3589230,-2002
3589252,-1745
3589294,-1721
3589317,-2417
3589337,-2590
3589379,-2302
3589384,-1817
3589401,-1409
3589423,-1470
3589465,-1724
3589488,-1453
3589509,-962
3589650,-772
3589695,-1690
3589738,-1811
3589759,-1568
3589801,-1620
3589822,-1464
3589843,-1469
3589885,-1635
3589890,-1962
3589907,-2125
3589929,-2178
3589971,-2074
3589976,-2005
3589995,-1843
3590152,-1727
3590235,-1672
3590279,-1668
3590322,-1663
3590328,-1275
3590349,-1127
3590391,-1095
3590412,-1482
3590434,-1655
3590476,-1638
3590498,-1492
3590520,-1461
3590562,-1413
3590582,-1514
3590604,-1467
3590646,-1074
3590667,-270
3590779,-540
3590860,-837
3590934,-1574
3590979,-906
3591021,-988
3591065,-874
3591085,-1349
3591105,-1140
3591148,-736
3591153,-639
3591171,-884
3591193,-1351
3591235,-1526
3591256,-935
3591277,-793
3591319,-968
3591342,-1482
3591363,-1405
3591438,-1202
3591447,-1541
3591489,-1505
3591509,-1114
3591531,-936
3591573,-764
3591578,-760
3591596,-780
3591618,-856
3591660,-824
3591681,-1009
3591702,-1341
3591744,-1518
3591749,-1476
3591766,-1185
3591788,-1027
3591928,-974
3591974,-231
3592017,-456
3592038,-170
3592081,-215
3592103,759
3592123,1696
3592166,2550
3592188,3188
3592208,3295
3592252,3605
3592272,4164
3592294,3997
3592339,3532
3592358,2233
3592379,1764
3592424,1437
3592442,291
3592463,-451
3592508,-910
3592546,-1093
3592552,-1251
3592596,-1495
3592612,-1677
3592634,-1521
3592678,-1399
3592697,-1719
3592719,-1813
3592763,-1633
3592782,-1063
3592804,-920
3592848,-929
3592867,-1226
3592889,-1068
3592933,-620
3592952,-704
3593062,-1469
3593148,-908
3593195,-632
3593202,-1133
3593224,-1543
3593268,-1439
3593287,-863
3593309,-926
3593353,-927
3593373,-344
3593395,-228
3593439,-376
3593458,-662
3593479,-609
3593524,-701
3593543,-1589
3593564,-1701
3593609,-1353
3593628,-853
3593665,-965
3593709,-887
3593715,-167
3593734,-8
3593778,-41
3593798,-266
3593820,-347
3593864,-460
3593883,-688
3593905,-506
3593949,-145
3593968,-137
3593990,-439
3594035,-540
3594054,-284
3594075,-253
3594218,-310
3594266,506
3594312,248
3594325,154
3594370,357
3594389,66
3594410,-143
3594455,-12
3594474,618
3594495,763
3594540,795
3594558,636
3594579,663
3594623,804
3594643,514
3594665,227
3594708,294
3594729,915
3594750,879
3594793,725
3594814,945
3594835,1104
3594911,1056
3594919,654
3594962,702
3594983,706
3595004,862
3595047,1092
3595067,1052
3595089,1061
3595132,1375
3595153,1587
3595174,1109
3595217,669
3595238,887
3595352,1193
3595435,642
3595481,705
3595488,535
3595510,368
3595553,382
3595572,614
3595595,499
3595638,320
3595659,267
3595678,330
3595721,350
3595742,384
3595764,490
3595806,499
3595827,59
3595850,118
3595893,418
3595912,152
3595934,-237
3595977,-189
3595997,572
3596019,561
3596062,475
3596082,987
3596104,1199
3596180,1053
3596188,732
3596231,891
3596252,177
3596274,-221
3596317,-236
3596337,94
3596359,157
3596500,256
3596546,777
3596591,501
3596608,527
3596651,707
3596672,1053
3596693,1032
3596736,915
3596757,674
3596778,816
3596821,1108
3596842,1114
3596864,815
3596906,691
3596927,1113
3596949,1272
3596992,1248
3597012,1015
3597034,1072
3597077,1210
3597098,1087
3597120,1010
3597162,1159
3597182,1520
3597203,1418
3597246,1211
3597267,950
3597289,1036
3597332,1190
3597352,1078
3597390,949
3597433,992
3597439,1193
3597459,1228
3597502,1286
3597523,1300
3597633,1237
3597717,1704
3597762,1193
3597773,1519
3597795,1642
3597838,1662
3597857,1415
3597879,1437
3597923,1643
3597943,1647
3597965,1478
3598008,1543
3598027,1940
3598049,1719
3598093,1257
3598113,911
3598135,1233
3598178,1530
3598198,1109
3598219,890
3598263,1057
3598283,1673
3598305,1664
3598349,1573
3598368,1514
3598389,1563
3598433,1627
3598454,1673
3598474,1778
3598518,1941
3598538,1929
3598576,1816
3598620,1801
3598626,1944
3598645,2039
3598787,2071
3598834,2024
3598879,1389
3598895,2121
3598939,2455
3598958,2165
3598980,1994
3599024,2050
3599043,1947
3599065,1695
3599109,1635
3599128,1883
3599150,1846
3599194,1814
3599214,2209
3599235,2408
3599280,2379
3599299,2121
3599320,2227
3599365,2326
3599384,1916
3599406,1869
3599450,2107
3599469,2107
3599491,1838
3599535,1792
3599553,1918
3599574,1754
3599619,1644
3599638,1792
3599659,1792
3599704,1726
3599742,1838
3599748,2010
3599792,2041
3599808,1631
3599921,1607
3600007,1321
3600054,1650
3600059,2183
3600079,2254
3600124,2031
3600144,1643
3600166,1740
3600210,1742
3600229,1030
3600251,902
3600295,1158
3600314,1520
3600335,1489
3600379,1602
3600398,1987
3600420,2026
3600464,2063
3600485,2279
3600505,2333
3600549,2366
3600569,2746
3600591,3217
3600635,3791
3600655,4601
3600676,4940
3600721,5354
3600740,5869
3600760,5876
3600804,5754
3600823,4719
3600845,3966
3600889,3354
3600928,2299
3600933,1662
3601076,1101
3601125,527
3601169,582
3601180,402
3601224,672
3601245,727
3601266,381
3601310,267
3601329,821
3601351,924
3601394,823
3601414,837
3601436,1173
3601479,1427
3601498,888
3601520,601
3601564,715
3601583,1047
3601604,822
3601647,624
3601668,933
3601769,1186
3601815,1162
3601860,966
3601904,868
3601920,483
3601941,545
3601985,909
3602005,926
3602027,487
3602070,381
3602089,1222
3602206,1389
3602291,1233
3602336,1438
3602342,965
3602380,906
3602424,1110
3602445,742
3602489,556
3602510,1183
3602530,1553
3602573,1639
3602594,1189
3602616,1172
3602659,1399
3602678,1484
3602700,1237
3602743,1081
3602764,1152
3602786,1307
3602829,1551
3602848,1984
3602870,2059
3602913,2054
3602934,1914
3602956,1925
3602998,1978
3603019,1658
3603041,1495
3603083,1637
3603104,2204
3603126,2208
3603168,2084
3603189,1906
3603211,1919
3603351,1990
3603397,1535
3603439,1840
3603460,1268
3603502,1621
3603507,2070
3603526,2283
3603563,1988
3603605,1587
3603611,1697
3603631,2030
3603673,2103
3603678,1678
3603696,1167
3603718,881
3603760,1058
3603782,1339
3603802,1032
3603843,805
3603849,821
3603867,1145
3603889,1379
3603930,1473
3603936,1400
3603954,1427
3603974,1432
3604016,1419
3604021,1268
3604039,1203
3604061,1131
3604103,1082
3604108,866
3604125,643
3604146,366
3604187,133
3604192,-170
3604211,-288
3604232,-180
3604274,115
3604279,113
3604297,-163
3604318,-450
3604360,-227
3604365,248
3604501,541
3604581,291
3604624,418
3604632,1
3604653,36
3604694,384
3604699,527
3604719,420
3604741,195
3604782,220
3604787,270
3604805,206
3604827,-81
3604867,-225
3604872,-155
3604891,138
3604912,296
3604953,351
3604958,284
3604977,340
3604998,441
3605039,640
3605044,785
3605063,968
3605084,1008
3605125,945
3605130,623
3605149,273
3605170,28
3605212,135
3605217,365
3605235,506
3605257,249
3605297,-70
3605303,-180
3605321,129
3605342,399
3605384,401
3605388,121
3605407,53
3605445,182
3605486,339
3605492,-139
3605513,-159
3605653,268
3605698,577
3605739,824
3605745,1135
3605764,893
3605805,577
3605810,485
3605828,877
3605850,1253
3605891,1206
3605896,580
3605915,-17
3605936,-205
3605978,81
3605983,306
3606001,249
3606023,-98
3606064,-233
