timestamp,ECG_Raw
0,-3970
111,-2410
170,-3400
227,-3038
285,-2968
343,-2158
348,-3060
366,-3244
423,-3264
430,-3417
452,-3495
509,-3519
516,-3443
537,-3245
593,-2924
600,-2589
720,-2730
831,-2605
891,-1972
949,-1736
954,-1835
1011,-2147
1018,-2593
1039,-2815
1096,-2974
1103,-2917
1125,-3086
1182,-3441
1188,-3356
1210,-2814
1267,-2444
1274,-2686
1295,-2834
1351,-2870
1359,-3321
1380,-3783
1436,-4196
1443,-4653
1464,-4697
1521,-4561
1528,-3839
1551,-3490
1608,-3297
1615,-3104
1659,-2951
1716,-3032
1722,-3542
1876,-3287
1935,-1202
1991,-1931
2047,-2075
2053,-3149
2108,-3476
2116,-4130
2138,-4750
2192,-5358
2201,-5723
2222,-5547
2277,-5313
2286,-4817
2308,-4474
2362,-4009
2371,-3001
2393,-2808
2448,-2866
2456,-3113
2478,-3303
2533,-3693
2541,-4450
2563,-4497
2618,-4546
2627,-5378
2648,-5758
2703,-5811
2712,-5609
2733,-5682
2788,-5781
2797,-5770
2818,-5694
2873,-5556
2882,-5253
2903,-5261
3057,-5300
3117,-4085
3174,-3875
3230,-3640
3276,-3261
3332,-2972
3389,-2691
3405,-2367
3460,-2402
3467,-2741
3489,-2696
3544,-2449
3553,-2317
3574,-2555
3629,-2685
3638,-2346
3659,-2309
3714,-2462
3723,-2381
3744,-2093
3800,-2006
3809,-2342
3830,-2169
3885,-1726
3894,-1458
3915,-1749
3970,-1889
3979,-1477
4000,-1472
4055,-1739
4064,-2023
4085,-1839
4238,-1652
4297,-1397
4353,-1575
4406,-2066
4419,-1887
4470,-1688
4483,-1367
4504,-1265
4554,-1233
4566,-990
4589,-657
4639,-381
4652,-552
4673,-736
4723,-719
4769,-416
4820,-419
4825,-281
4843,-120
4893,49
4906,420
4927,609
4977,734
4991,627
5014,544
5062,662
5076,1439
5099,1676
5146,1641
5162,1380
5183,1420
5231,1476
5246,1213
5269,1007
5415,859
5466,869
5513,433
5518,19
5565,-66
5582,-89
5604,-154
5651,-284
5667,-313
5689,-200
5735,-160
5752,-259
5773,-179
5819,-108
5838,-573
5859,-805
5904,-726
5923,-359
5944,-480
5990,-700
6007,-863
6028,-790
6073,-619
6092,-425
6115,-782
6160,-1249
6177,-1178
6200,-915
6244,-1030
6290,-1764
6335,-1644
6347,-2016
6368,-2161
6412,-2065
6433,-1893
6547,-2010
6633,-1579
6679,-2057
6685,-1445
6703,-1253
6746,-1415
6767,-1710
6789,-1407
6833,-1058
6853,-1276
6875,-1640
6918,-1788
6938,-1509
6959,-1525
7002,-1755
7023,-1989
7044,-1677
7086,-1299
7107,-1340
7130,-1591
7172,-1613
7192,-1192
7214,-1251
7256,-1494
7278,-1430
7299,-1112
7342,-967
7362,-1322
7385,-1361
7427,-1176
7447,-1055
7470,-1347
7512,-1627
7532,-1459
7555,-1242
7695,-1274
7740,-1425
7822,-1786
7865,-1320
7871,-1579
7889,-1397
7930,-1177
7934,-1152
7954,-1374
7975,-1652
8016,-1722
8021,-1512
8039,-1213
8062,-1114
8102,-1307
8107,-1634
8125,-1851
8148,-1870
8188,-1760
8193,-1621
8211,-1517
8232,-1534
8273,-1699
8278,-1885
8297,-1848
8319,-1520
8359,-1201
8364,-1300
8384,-1852
8405,-2384
8445,-2362
8450,-1808
8470,-1310
8491,-1344
8532,-1748
8536,-1950
8556,-1652
8577,-1158
8618,-996
8622,-1341
8642,-1843
8663,-2067
8704,-1949
8708,-1777
8728,-1783
8872,-1927
8951,-1600
8994,-2033
8999,-1733
9040,-1388
9044,-1293
9062,-1434
9085,-1474
9126,-1156
9130,-630
9150,-310
9171,-358
9211,-496
9216,-354
9235,93
9256,502
9296,592
9301,451
9322,356
9343,361
9383,232
9387,-220
9407,-874
9430,-1466
9470,-1935
9475,-2443
9494,-3038
9515,-3518
9556,-3667
9560,-3536
9580,-3365
9601,-3211
9641,-2877
9646,-2250
9666,-1628
9687,-1419
9727,-1589
9732,-1656
9752,-1287
9773,-738
9813,-572
9817,-967
9838,-1479
9860,-1590
10039,-1301
10119,-964
10161,-851
10171,-910
10192,-820
10232,-701
10237,-560
10257,-408
10279,-287
10319,-239
10324,-244
10344,-236
10365,-225
10405,-299
10410,-480
10429,-662
10452,-719
10492,-683
10497,-746
10516,-998
10537,-1244
10577,-1206
10582,-860
10602,-522
10623,-517
10662,-841
10667,-1172
10688,-1229
10787,-1048
10828,-1147
10869,-1433
10876,-1331
10915,-1414
10920,-1537
10941,-1584
10963,-1509
11002,-1410
11007,-1381
11028,-1422
11049,-1447
11187,-1416
11287,-1353
11329,-949
11369,-1240
11383,-1011
11422,-945
11427,-1149
11446,-1451
11468,-1538
11507,-1337
11512,-1062
11533,-959
11554,-1058
11593,-1194
11598,-1235
11618,-1184
11641,-1143
11680,-1196
11685,-1381
11705,-1612
11726,-1729
11765,-1635
11770,-1402
11791,-1246
11812,-1287
11852,-1407
11857,-1445
11876,-1402
11899,-1404
11938,-1491
11943,-1534
11963,-1431
11984,-1314
12023,-1407
12028,-1655
12049,-1750
12071,-1540
12110,-1236
12115,-1183
12134,-1412
12157,-1639
12336,-1674
12414,-2587
12456,-2277
12468,-2763
12491,-2684
12530,-2410
12535,-2196
12555,-2202
12576,-2379
12615,-2551
12620,-2590
12641,-2504
12663,-2396
12702,-2349
12707,-2355
12726,-2300
12749,-2118
12788,-1896
12793,-1777
12813,-1807
12834,-1880
12873,-1879
12878,-1850
12899,-1944
12921,-2191
12960,-2432
12965,-2502
12985,-2434
13006,-2413
13045,-2513
13050,-2596
13071,-2527
13092,-2358
13132,-2264
13137,-2296
13156,-2322
13179,-2230
13218,-2098
13223,-2085
13269,-2192
13309,-2165
13327,-2156
13349,-2266
13486,-2295
13529,-2547
13569,-2321
13578,-2776
13601,-2631
13640,-2296
13645,-2052
13665,-2060
13686,-2231
13725,-2392
13730,-2439
13752,-2409
13773,-2366
13812,-2340
13817,-2345
13837,-2396
13858,-2465
13897,-2474
13902,-2372
13924,-2176
13945,-2038
13984,-2086
13989,-2274
14009,-2401
14030,-2303
14069,-2078
14074,-1988
14095,-2190
14117,-2561
14156,-2783
14161,-2671
14180,-2397
14203,-2286
14242,-2461
14247,-2700
14267,-2699
14313,-2363
14352,-1567
14373,-1534
14412,-1477
14417,-1285
14438,-1087
14459,-1000
14498,-1027
14503,-1107
14523,-1216
14631,-1348
14707,-1468
14713,-1087
14752,-876
14757,-884
14775,-1030
14798,-1056
14837,-843
14842,-589
14861,-573
14883,-813
14922,-1051
14926,-1058
14948,-938
14969,-948
15008,-1117
15013,-1206
15034,-1029
15055,-747
15094,-714
15099,-1024
15120,-1340
15142,-1280
15180,-911
15185,-669
15206,-844
15228,-1249
15267,-1444
15272,-1280
15293,-1020
15439,-979
15516,-1657
15557,-1409
15562,-1815
15601,-1796
15606,-1590
15628,-1442
15649,-1567
15786,-1901
15829,-2319
15869,-1915
15879,-1716
15901,-2001
15940,-2142
15945,-1975
15964,-1729
15986,-1710
16025,-1951
16030,-2195
16051,-2228
16072,-2117
16112,-2087
16117,-2220
16137,-2394
16158,-2492
16197,-2510
16202,-2533
16223,-2576
16245,-2586
16284,-2532
16289,-2467
16309,-2432
16331,-2365
16371,-2217
16376,-2039
16396,-1910
16417,-1813
16456,-1611
16461,-1241
16481,-813
16518,-508
16557,-396
16566,-234
16589,-9
16628,176
16632,121
16652,-301
16674,-1014
16713,-1760
16718,-2283
16739,-2568
16760,-2879
16799,-3434
16804,-4074
16825,-4393
16932,-4184
17009,-3007
17015,-1898
17054,-2025
17076,-1902
17097,-1676
17137,-1593
17142,-1704
17163,-1869
17184,-1901
17223,-1737
17228,-1525
17248,-1473
17269,-1611
17308,-1731
17313,-1647
17334,-1450
17356,-1419
17395,-1606
17400,-1757
17421,-1608
17442,-1266
17481,-1126
17486,-1332
17506,-1563
17544,-1471
17583,-1146
17592,-1357
17613,-1743
17652,-1776
17657,-1473
17678,-1271
17699,-1452
17738,-1789
17743,-1884
17764,-1644
17785,-1359
17824,-1313
17829,-1463
17850,-1542
17871,-1415
17910,-1213
17915,-1161
17935,-1327
17958,-1538
18095,-1557
18138,-1402
18178,-1056
18187,-1434
18208,-1468
18247,-1292
18252,-1105
18273,-1081
18294,-1177
18333,-1235
18338,-1185
18360,-1097
18381,-1064
18420,-1116
18425,-1231
18445,-1382
18467,-1494
18506,-1500
18511,-1411
18549,-1312
18554,-1258
18593,-1194
18598,-1044
18617,-872
18639,-804
18678,-874
18683,-957
18704,-935
18725,-853
18764,-839
18769,-907
18790,-919
18811,-813
18850,-709
18855,-740
18876,-845
18897,-832
18936,-663
18941,-547
18962,-707
18984,-1074
19023,-1299
19028,-1129
19047,-700
19069,-391
19108,-469
19112,-820
19134,-1115
19242,-1111
19318,-1657
19324,-1131
19363,-990
19385,-1176
19407,-1052
19446,-818
19450,-747
19472,-995
19493,-1384
19532,-1607
19537,-1534
19557,-1329
19594,-1274
19633,-1467
19642,-1811
19664,-1621
19703,-1348
19708,-1253
19729,-1408
19750,-1623
19789,-1673
19794,-1554
19814,-1470
19835,-1588
19874,-1831
19879,-1983
19901,-1948
19922,-1863
19961,-1908
19966,-2077
19987,-2216
20009,-2210
20048,-2095
20053,-1983
20072,-1903
20094,-1846
20133,-1815
20138,-1842
20159,-1917
20180,-1973
20220,-1993
20225,-1971
20244,-1936
20266,-1905
20404,-1904
20446,-1931
20486,-2177
20497,-2241
20518,-2174
20557,-2059
20562,-1920
20600,-1832
20604,-1879
20644,-2005
20648,-2025
20668,-1844
20690,-1626
20729,-1636
20734,-1907
20755,-2174
20776,-2191
20815,-2035
20820,-2008
20840,-2213
20863,-2424
20902,-2370
20907,-2086
20927,-1875
20948,-1923
20987,-2088
20992,-2098
21013,-1923
21035,-1794
21074,-1896
21079,-2124
21098,-2183
21120,-1957
21159,-1697
21164,-1706
21185,-1985
21206,-2214
21245,-2116
21250,-1781
21272,-1561
21293,-1649
21332,-1878
21337,-1949
21357,-1771
21378,-1560
21417,-1526
21554,-1620
21632,-1830
21707,-1921
21748,-1595
21788,-1992
21795,-1784
21834,-1633
21839,-1747
21861,-1963
21882,-1988
21921,-1777
21926,-1585
21947,-1618
21969,-1788
22008,-1878
22013,-1829
22032,-1762
22054,-1763
22093,-1753
22098,-1656
22119,-1551
22140,-1605
22179,-1831
22184,-2038
22206,-2018
22227,-1766
22266,-1467
22271,-1345
22291,-1436
22312,-1577
22351,-1539
22356,-1227
22377,-830
22398,-665
22437,-891
22442,-1335
22463,-1642
22485,-1648
22524,-1491
22529,-1393
22566,-1413
22571,-1427
22709,-1357
22751,-1513
22791,-1741
22800,-1902
22821,-1706
22860,-1484
22865,-1418
22887,-1558
22908,-1782
22947,-1933
22952,-1969
22973,-1975
22994,-2030
23033,-2093
23038,-2064
23060,-1930
23081,-1812
23120,-1818
23125,-1887
23145,-1867
23166,-1723
23205,-1618
23210,-1730
23231,-2041
23253,-2316
23292,-2335
23297,-2133
23316,-1946
23338,-1947
23377,-2082
23382,-2166
23403,-2096
23424,-1960
23463,-1943
23468,-2106
23490,-2304
23511,-2371
23583,-2313
23594,-2727
23633,-2651
23638,-2245
23659,-1781
23681,-1521
23720,-1474
23725,-1398
23746,-1134
23852,-769
23928,84
23934,-101
23973,-339
23978,-690
23997,-1124
24018,-1638
24058,-2284
24063,-3045
24082,-3710
24104,-4016
24143,-3937
24148,-3733
24169,-3667
24190,-3673
24230,-3457
24235,-2892
24254,-2224
24277,-1798
24316,-1678
24321,-1639
24341,-1514
24362,-1403
24401,-1492
24406,-1741
24428,-1878
24449,-1730
24488,-1443
24493,-1302
24513,-1412
24535,-1578
24608,-1504
24619,-669
24658,-870
24663,-1138
24684,-1216
24705,-1102
24744,-995
24749,-1046
24769,-1209
24792,-1326
24831,-1315
24836,-1217
24856,-1087
24877,-925
25014,-741
25057,-659
25097,-386
25107,-454
25129,-681
25168,-800
25173,-636
25192,-318
25215,-210
25254,-514
25259,-991
25279,-1158
25300,-847
25339,-380
25344,-226
25365,-493
25386,-845
25425,-958
25430,-834
25451,-704
25473,-740
25512,-866
25516,-923
25538,-864
25559,-753
25598,-670
25603,-626
25624,-560
25662,-411
25701,-229
25708,-348
25731,-712
25770,-1016
25775,-1060
25794,-908
25815,-830
25855,-978
25859,-1211
25881,-1252
25902,-1001
25941,-674
25946,-534
25967,-632
25988,-796
26027,-837
26032,-708
26053,-495
26160,-344
26236,-462
26242,-944
26281,-1070
26286,-842
26304,-536
26327,-520
26366,-808
26371,-1025
26391,-860
26412,-448
26451,-205
26456,-325
26477,-589
26498,-670
26537,-496
26542,-316
26563,-392
26584,-705
26623,-967
26628,-940
26650,-694
26671,-494
26743,-527
26755,-692
26795,-544
26800,-555
26819,-746
26840,-948
26880,-1013
26884,-975
26906,-957
26927,-1032
26966,-1108
26971,-1098
26992,-1023
27014,-940
27053,-895
27058,-906
27077,-957
27100,-1029
27139,-1085
27144,-1098
27164,-1104
27185,-1170
27323,-1283
27365,-1331
27405,-1265
27416,-1186
27437,-1256
27476,-1346
27481,-1383
27501,-1330
27522,-1246
27561,-1251
27566,-1402
27587,-1578
27609,-1570
27648,-1322
27653,-1035
27674,-937
27695,-1048
27734,-1165
27739,-1138
27777,-1045
27782,-1042
27821,-1191
27826,-1404
27846,-1569
27867,-1619
27906,-1534
27911,-1354
27932,-1213
27953,-1250
27993,-1415
27998,-1466
28017,-1262
28039,-960
28078,-892
28082,-1149
28104,-1480
28125,-1554
28164,-1343
28169,-1071
28190,-961
28212,-986
28250,-1009
28255,-990
28277,-1028
28298,-1156
28337,-1274
28342,-1262
28362,-1135
28468,-1085
28544,-857
28551,-988
28590,-1135
28594,-968
28614,-711
28636,-658
28675,-848
28679,-1057
28701,-1096
28722,-1015
28794,-956
28807,-813
28846,-716
28850,-726
28870,-807
28891,-864
28930,-874
28935,-902
28956,-1015
28978,-1136
29017,-1176
29022,-1146
29043,-1138
29064,-1184
29103,-1191
29108,-1031
29130,-734
29151,-485
29190,-439
29194,-563
29216,-709
29237,-784
29276,-812
29281,-836
29300,-883
29323,-953
29362,-1053
29367,-1163
29387,-1198
29408,-1094
29447,-890
29452,-724
29473,-691
29494,-785
29632,-913
29674,-867
29714,-822
29724,-659
29746,-548
29785,-511
29789,-564
29827,-627
29832,-677
29871,-731
29876,-787
29897,-801
29918,-737
29957,-666
29962,-688
29983,-801
30004,-876
30043,-824
30048,-751
30069,-840
30091,-1081
30130,-1223
30135,-1065
30154,-731
30177,-549
30216,-702
30221,-1017
30241,-1144
30262,-978
30301,-744
30306,-721
30327,-932
30348,-1111
30387,-1047
30392,-808
30413,-659
30435,-757
30473,-964
30478,-1019
30500,-839
30521,-622
30560,-623
30565,-852
30586,-1039
30607,-986
30646,-790
30651,-711
30671,-857
30777,-1076
30886,-1312
30928,-1507
30942,-1234
30981,-1065
30986,-916
31007,-706
31028,-369
31067,77
31072,521
31093,853
31114,1072
31153,1266
31158,1517
31180,1748
31201,1739
31240,1345
31245,654
31265,-32
31286,-532
31325,-960
31330,-1561
31351,-2376
31372,-3135
31412,-3526
31417,-3503
31437,-3295
31460,-3109
31499,-2931
31504,-2634
31523,-2191
31545,-1694
31584,-1268
31589,-985
31609,-852
31631,-870
31670,-1005
31675,-1163
31695,-1258
31716,-1250
31755,-1179
31760,-1089
31782,-1003
31819,-942
31957,-912
32000,-652
32040,-209
32052,-184
32092,-352
32096,-376
32118,-273
32139,-231
32178,-365
32183,-603
32204,-754
32225,-728
32264,-619
32269,-584
32291,-689
32312,-815
32351,-789
32356,-581
32375,-363
32398,-355
32437,-590
32442,-861
32462,-955
32483,-858
32522,-757
32527,-780
32548,-890
32648,-935
32690,-165
32730,-11
32737,-10
32776,-159
32781,-369
32802,-504
32823,-459
32862,-282
32867,-154
32887,-170
32910,-198
32949,-67
32954,164
32973,237
33109,14
33186,-761
33228,-121
33245,-283
33284,-70
33289,53
33308,-143
33331,-460
33370,-529
33375,-303
33395,-112
33416,-231
33455,-494
33460,-467
33481,-42
33502,397
33541,425
33546,84
33567,-194
33589,-93
33628,237
33633,373
33654,163
33675,-129
33714,-186
33719,-3
33740,141
33761,56
33800,-152
33805,-261
33825,-192
33848,-89
33887,-110
33892,-269
33911,-424
33932,-470
33972,-405
33976,-308
33998,-273
34019,-344
34058,-457
34063,-510
34084,-424
34105,-274
34276,-225
34355,-775
34396,-809
34417,-703
34438,-832
34477,-1001
34482,-1085
34503,-1032
34524,-898
34564,-778
34569,-766
34590,-897
34611,-1092
34650,-1200
34655,-1136
34675,-955
34696,-836
34735,-870
34740,-976
34761,-1025
34783,-1028
34822,-1062
34827,-1102
34848,-1023
34869,-824
34909,-715
34913,-897
34933,-1231
34954,-1357
34993,-1134
34998,-831
35020,-801
35041,-1065
35080,-1301
35085,-1251
35106,-997
35127,-814
35166,-811
35171,-891
35191,-919
35214,-873
35286,-781
35297,-694
35435,-776
35477,-653
35517,-616
35528,-696
35549,-702
35588,-698
35593,-696
35614,-676
35635,-633
35674,-614
35679,-655
35699,-693
35721,-631
35760,-503
35765,-440
35785,-491
35808,-548
35847,-500
35851,-429
35871,-474
35892,-583
35931,-550
35936,-340
35957,-182
35979,-291
36018,-541
36022,-607
36044,-397
36065,-192
36104,-291
36109,-628
36130,-906
36151,-969
36190,-925
36195,-935
36216,-990
36237,-988
36276,-916
36281,-874
36303,-880
36324,-828
36396,-704
36407,-613
36447,-602
36451,-511
36473,-452
36579,-534
36656,-403
36662,-525
36701,-416
36706,-239
36724,-172
36745,-320
36785,-587
36789,-760
36811,-725
36832,-560
36871,-436
36876,-443
36897,-546
36918,-664
36958,-731
36963,-742
36982,-721
37003,-706
37043,-753
37048,-887
37069,-1027
37090,-1063
37129,-1014
37134,-968
37156,-1013
37177,-1101
37216,-1103
37221,-994
37241,-908
37262,-1020
37302,-1301
37306,-1559
37326,-1607
37349,-1441
37389,-1223
37393,-1145
37431,-1231
37436,-1331
37475,-1261
37480,-1013
37498,-792
37520,-820
37560,-1105
37565,-1433
37584,-1579
37606,-1536
37743,-1486
37787,-1362
37827,-1356
37836,-1338
37857,-1409
37896,-1484
37901,-1473
37921,-1391
37942,-1328
37982,-1365
37987,-1459
38008,-1504
38029,-1458
38069,-1357
38074,-1312
38093,-1407
38115,-1610
38154,-1775
38159,-1784
38180,-1608
38202,-1309
38241,-999
38246,-734
38266,-499
38287,-241
38326,68
38331,403
38352,698
38373,883
38413,909
38451,768
38458,50
38497,-387
38502,-764
38523,-1127
38544,-1649
38584,-2379
38589,-3135
38610,-3611
38631,-3682
38671,-3529
38676,-3383
38695,-3247
38717,-2969
38757,-2561
38761,-2208
38781,-2025
38889,-1863
38967,-1596
38973,-989
39013,-1075
39033,-1278
39054,-1113
39094,-1106
39099,-1396
39118,-1708
39140,-1699
39179,-1396
39184,-1158
39205,-1226
39227,-1481
39266,-1630
39271,-1544
39291,-1317
39312,-1123
39352,-1089
39357,-1242
39376,-1493
39398,-1696
39437,-1735
39475,-1616
39483,-1474
39522,-1551
39528,-1623
39549,-1624
39570,-1556
39610,-1423
39615,-1217
39634,-988
39655,-875
39695,-962
39700,-1138
39721,-1195
39742,-1063
39782,-890
39787,-887
39806,-1087
39828,-1313
39867,-1377
39872,-1248
39893,-1036
39915,-874
40053,-813
40095,-908
40136,-1137
40143,-1196
40166,-961
40205,-671
40210,-535
40230,-672
40251,-930
40290,-998
40295,-729
40316,-315
40338,-139
40377,-347
40382,-694
40401,-813
40424,-613
40463,-344
40468,-289
40506,-459
40511,-604
40550,-549
40555,-356
40574,-223
40596,-219
40635,-256
40640,-228
40661,-127
40682,-45
40721,-41
40726,-81
40746,-74
40768,-5
40807,31
40812,-38
40832,-187
40854,-287
40894,-249
40899,-130
40918,-74
40939,-148
40979,-255
40984,-274
41005,-196
41026,-126
41066,-158
41070,-270
41090,-352
41200,-332
41277,2
41283,-247
41323,-127
41341,-148
41364,-331
41404,-451
41408,-411
41428,-291
41449,-259
41489,-378
41494,-534
41515,-608
41536,-617
41576,-699
41613,-938
41621,-1307
41660,-1205
41665,-1075
41685,-1111
41706,-1250
41746,-1256
41751,-1019
41772,-703
41793,-590
41833,-757
41838,-987
41857,-1020
41879,-833
41918,-629
41923,-571
41943,-622
41966,-648
42005,-630
42010,-645
42030,-678
42051,-634
42090,-489
42095,-383
42116,-460
42137,-639
42177,-679
42182,-464
42201,-185
42224,-119
42362,-321
42405,-342
42446,-691
42453,-123
42474,17
42514,-223
42519,-562
42539,-573
42561,-185
42602,198
42607,149
42625,-266
42663,-567
42703,-452
42710,58
42732,-85
42772,-244
42777,-123
42797,208
42818,413
42859,327
42863,118
42883,69
42904,257
42945,479
42950,482
42968,259
42991,83
43031,206
43036,580
43054,870
43077,803
43118,474
43123,253
43141,392
43162,738
43203,908
43208,736
43227,448
43249,349
43290,461
43294,552
43313,427
43334,190
43375,110
43379,250
43399,428
43508,438
43607,342
43648,391
43693,-162
43735,-296
43754,-294
43794,-431
43799,-542
43819,-539
43840,-445
43881,-337
43919,-263
43926,-184
43966,-168
43971,-149
43989,-76
44012,35
44053,100
44057,57
44075,-64
44097,-147
44137,-111
44142,-6
44161,83
44184,122
44225,134
44230,127
44248,108
44269,70
44310,22
44314,-33
44334,-98
44355,-144
44396,-117
44400,-15
44420,68
44441,21
44482,-131
44487,-263
44506,-305
44527,-340
44667,-508
44711,-857
44753,-936
44758,-470
44779,-520
44820,-728
44825,-866
44843,-822
44866,-681
44906,-595
44911,-656
44929,-827
44950,-980
44991,-995
44996,-851
45034,-674
45038,-648
45079,-793
45101,-1032
45122,-1001
45163,-984
45168,-991
45187,-943
45209,-828
45250,-763
45254,-873
45272,-1110
45295,-1317
45336,-1394
45341,-1356
45359,-1323
45380,-1417
45421,-1650
45426,-1889
45445,-1893
45467,-1527
45507,-953
45512,-519
45532,-394
45553,-372
45594,-145
45598,304
45618,719
45639,921
45680,1011
45685,1122
45703,1177
45812,981
45893,-1129
45936,-2934
45953,-3015
45975,-2816
46016,-2577
46021,-2321
46039,-1990
46062,-1625
46136,-1396
46146,-1184
46187,-834
46192,-690
46210,-935
46231,-1310
46272,-1427
46277,-1243
46295,-1052
46318,-1068
46359,-1192
46381,-1109
46403,-1027
46444,-1020
46449,-970
46467,-813
46488,-677
46529,-706
46534,-839
46554,-876
46575,-779
46616,-695
46621,-764
46639,-911
46660,-956
46702,-837
46707,-669
46725,-594
46747,-616
46789,-648
46811,-677
46832,-677
46972,-622
47017,-504
47060,269
47065,-167
47083,-201
47125,91
47130,367
47148,304
47169,-42
47211,-357
47215,-427
47372,-346
47455,259
47499,28
47505,239
47547,-27
47567,-545
47588,-322
47630,3
47635,120
47653,-14
47675,-132
47718,-8
47738,400
47760,286
47803,96
47823,200
47844,373
47887,456
47891,467
47909,484
47931,517
47973,534
47995,586
48105,632
48189,421
48234,301
48244,704
48267,725
48310,523
48331,256
48352,359
48395,415
48415,132
48436,-4
48479,11
48500,197
48521,153
48564,20
48586,-2
48607,127
48650,143
48670,-332
48691,-474
48734,-419
48755,-448
48777,-693
48853,-831
48861,-232
48904,-239
48925,-445
48946,-519
48989,-620
49009,-698
49030,-680
49073,-759
49095,-1018
49116,-855
49258,-546
49304,-874
49348,-965
49367,-1120
49410,-1128
49430,-713
49451,-567
49494,-631
49516,-857
49537,-733
49580,-517
49600,-410
49621,-469
49664,-410
49686,-110
49707,-179
49750,-403
49770,-469
49792,-295
49835,-236
49855,-550
49878,-652
49921,-634
49941,-479
49962,-397
50005,-352
50025,-559
50047,-639
50090,-547
50112,-313
50133,-447
50176,-634
50214,-652
50219,-601
50262,-667
50280,-841
50392,-751
50475,-578
50520,-437
50531,-324
50553,-308
50596,-342
50617,-259
50638,-198
50681,-262
50701,-618
50722,-628
50765,-477
50787,-286
50808,-391
50851,-556
50871,-679
50893,-618
50935,-544
50957,-646
50979,-824
51021,-949
51042,-733
51063,-545
51105,-471
51127,-489
51149,-449
51191,-448
51212,-648
51233,-599
51276,-419
51297,-372
51319,-554
51361,-590
51382,-173
51403,-151
51544,-328
51590,-324
51634,-346
51672,-157
51715,-263
51720,-554
51739,-469
51781,-363
51803,-564
51824,-582
51867,-422
51887,-465
51910,-720
51952,-729
51972,-152
51994,-285
52036,-727
52058,-856
52079,-444
52122,-232
52144,-884
52165,-1245
52207,-1307
52228,-704
52249,-472
52291,-527
52296,-790
52314,-968
52335,-838
52377,-505
52399,-431
52421,-802
52463,-1099
52485,-921
52506,-730
52548,-697
52569,-881
52678,-802
52761,-722
52806,-517
52820,-504
52841,-171
52883,283
52905,831
52926,903
52969,976
53008,1151
53013,1205
53056,1222
53075,839
53096,304
53140,-333
53160,-1208
53181,-1422
53225,-1685
53245,-2467
53267,-2657
53310,-2527
53330,-1703
53352,-1334
53395,-1070
53416,-643
53437,-468
53481,-350
53501,-256
53522,-310
53566,-391
53586,-282
53607,-77
53651,58
53671,-70
53692,-153
53834,-173
53881,-326
53926,-184
53943,-377
53986,-134
54007,300
54028,126
54071,-73
54092,282
54113,547
54156,586
54177,402
54198,427
54241,483
54262,541
54283,592
54326,598
54365,475
54445,578
54490,997
54535,1248
54581,940
54598,996
54619,974
54663,683
54683,62
54704,178
54748,449
54768,627
54789,671
54833,876
54853,1117
54964,908
55049,754
55095,822
55104,1066
55125,962
55169,805
55188,825
55210,979
55254,1054
55273,756
55294,650
55338,720
55358,1091
55380,1211
55424,1264
55444,1349
55465,1450
55509,1558
55528,1404
55549,1199
55593,1114
55614,1190
55635,991
55679,653
55700,474
55721,739
55765,979
55783,957
55805,797
55848,678
55869,769
55907,860
55951,792
55956,235
55976,144
56118,281
56165,199
56211,261
56226,220
56270,-80
56290,-324
56311,-19
56355,288
56374,95
56396,-161
56440,-202
56460,166
56481,171
56525,-40
56545,-368
56566,-232
56610,-14
56630,-195
56651,-495
56694,-552
56714,88
56737,168
56780,-48
56800,-57
56821,258
56865,348
56885,-192
56906,-175
56949,58
56969,-63
56992,-284
57035,-234
57055,76
57077,-95
57120,-258
57140,-31
57251,-113
57335,-200
57380,42
57391,234
57412,101
57488,-39
57495,-224
57538,-232
57560,-439
57581,-565
57624,-549
57644,-289
57666,-253
57708,-201
57730,172
57751,201
57794,-25
57816,-431
57837,-367
57879,-306
57900,-479
57921,-516
57963,-467
57985,-319
58007,-142
58049,62
58071,-111
58092,-359
58134,-367
58155,-55
58177,-282
58220,-633
58240,-330
58261,63
58402,105
58448,-351
58491,-505
58512,-17
58555,-281
58576,-155
58598,104
58640,89
58660,-647
58683,-790
58726,-631
58746,-230
58767,-210
58810,-191
58832,78
58984,218
59069,-249
59113,-98
59157,241
59164,-384
59185,-446
59228,-285
59250,-147
59271,-313
59313,-516
59335,-699
59357,-536
59399,-249
59420,-191
59529,-536
59612,-497
59656,-965
59670,-564
59691,-134
59734,-14
59756,-726
59777,-700
59819,-184
59841,300
59862,-226
59904,-704
59925,-238
59947,94
59989,-4
60011,-538
60032,-381
60074,-64
60096,202
60117,242
60159,373
60181,840
60202,1115
60244,1381
60265,1599
60288,1596
60330,1729
60351,2230
60372,2071
60415,1526
60454,378
60458,26
60501,-417
60520,-1802
60543,-2284
60684,-2437
60732,-605
60777,-244
60792,51
60836,-2
60856,-381
60877,-569
60921,-579
60941,109
60962,344
61006,208
61026,-187
61047,-13
61091,165
61111,-34
61132,-56
61175,22
61197,-385
61218,-627
61262,-493
61282,92
61302,-15
61346,-235
61367,-10
61388,270
61432,352
61452,-106
61473,-295
61517,-260
61537,56
61558,-57
61601,-305
61622,-241
61643,34
61686,151
61707,-180
61818,-269
61903,56
61948,49
61957,40
61995,-34
62038,-195
62043,-389
62063,-125
62106,240
62127,205
62148,-59
62191,-59
62213,391
62234,191
62278,-219
62298,-228
62319,130
62363,268
62383,-74
62404,21
62447,332
62468,460
62489,205
62532,94
62553,435
62574,362
62617,19
62637,-289
62659,-7
62702,217
62724,-19
62745,-58
62788,158
62808,420
62830,157
62971,-151
63018,-105
63063,338
63080,535
63124,439
63144,-78
63165,-284
63209,-286
63229,4
63250,-67
63293,-282
63314,-518
63335,-449
63378,-361
63398,-417
63436,-611
63480,-883
63485,-1132
63505,-1046
63549,-973
63569,-1059
63590,-1100
63634,-1196
63655,-1799
63676,-1969
63720,-1792
63739,-1354
63761,-1690
63805,-2133
63824,-1751
63845,-1157
63890,-880
63909,-1267
63930,-1406
63974,-1409
63995,-1388
64106,-1360
64190,-1373
64235,-1199
64244,-1046
64265,-954
64308,-1052
64330,-1023
64351,-721
64394,-504
64415,-600
64436,-613
64479,-510
64499,-314
64522,-328
64564,-429
64585,-663
64606,-558
64649,-310
64671,-173
64692,-317
64767,-321
64775,-183
64818,-383
64838,-319
64861,-189
64904,-198
64924,-223
64945,-68
64988,2
65010,-298
65031,-295
65074,-95
65094,28
65115,-170
65255,-289
65358,-430
65405,-493
65449,-221
65493,-164
65511,37
65532,37
65575,-84
65597,-449
65618,-447
65661,-317
65681,-406
65703,-583
65745,-540
65767,-25
65788,-86
65831,-313
65852,-96
65874,164
65917,114
65937,-283
65959,-130
66001,73
66022,-136
66044,-239
66087,-127
66107,61
66129,-48
66171,-99
66193,115
66214,161
66389,136
66474,202
66519,6
66526,50
66547,5
66589,-59
66611,-157
66632,-163
66675,-139
66695,-126
66718,-154
66760,-124
66781,56
66802,52
66844,-10
66849,-23
66867,57
66889,154
66932,132
66952,-79
66973,8
67015,195
67020,315
67038,280
67059,191
67101,221
67106,389
67124,573
67145,638
67187,562
67192,454
67210,417
67231,418
67273,367
67278,264
67296,212
67317,286
67359,416
67364,450
67382,361
67403,322
67544,503
67590,1367
67633,2008
67654,2129
67697,2609
67736,2662
67741,2194
67784,1675
67803,779
67824,315
67867,-215
67889,-1405
67910,-1826
67953,-1954
67973,-1447
67995,-1096
68038,-774
68059,-230
68080,5
68123,290
68144,929
68165,1024
68208,917
68229,931
68250,1211
68293,1403
68314,1119
68335,961
68379,969
68399,1060
68420,968
68464,869
68483,988
68504,1165
68548,1300
68568,1174
68678,1021
68765,942
68811,1641
68818,1188
68841,1092
68885,1191
68904,1068
68925,750
68969,568
68989,978
69011,1214
69055,1295
69074,1315
69111,1312
69156,1241
69161,1106
69181,1102
69225,1033
69244,735
69265,789
69309,1028
69329,1377
69351,1358
69395,1320
69414,1245
69435,1123
69479,1032
69500,1232
69521,1314
69565,1183
69584,757
69605,837
69650,1046
69670,963
69691,735
69834,647
69881,1145
69927,1058
69942,1208
69986,1288
70005,1084
70026,993
70071,1047
70089,1213
70111,1067
70155,801
70175,447
70196,469
70241,560
70261,825
70282,957
70326,998
70345,734
70366,618
70410,629
70431,655
70452,490
70529,255
70535,143
70579,273
70600,292
70621,89
70665,-138
70685,-255
70706,-268
70750,-350
70770,-454
70792,-340
70836,-231
70854,-324
70967,-346
71054,-914
71100,-455
71106,-702
71127,-699
71171,-487
71190,-372
71211,-634
71256,-786
71275,-465
71297,-519
71341,-822
71359,-982
71382,-701
71425,-527
71445,-738
71466,-720
71509,-551
71531,-417
71552,-448
71595,-393
71615,-225
71636,-298
71679,-437
71701,-501
71722,-444
71764,-444
71786,-636
71808,-650
71850,-512
71889,-281
71893,-415
71936,-613
71956,-546
71978,-436
72119,-507
72165,-763
72209,-113
72227,-123
72270,-226
72291,235
72312,340
72355,87
72376,-519
72398,-479
72440,-403
72461,-638
72483,-636
72526,-422
72547,-162
72568,-294
72611,-394
72631,-224
72654,-224
72696,-431
72717,-912
72738,-867
72781,-652
72801,-360
72822,-414
72865,-505
72887,-480
72909,-379
72951,-290
72972,-331
72993,-457
73036,-550
73058,-429
73079,-388
73122,-458
73142,-544
73252,-484
73336,-270
73414,-426
73459,-423
73476,-612
73497,-355
73540,-159
73560,-323
73582,-381
73624,-267
73646,-11
73667,-90
73710,-237
73730,-280
73752,-198
73794,-207
73816,-634
73838,-790
73881,-778
73901,-774
73922,-931
73965,-990
73985,-418
74007,-220
74050,-380
74072,-915
74093,-793
74136,-541
74156,-812
74177,-1240
74220,-1458
74241,-924
74263,-619
74404,-566
74451,-545
74494,-674
74513,-903
74555,-1226
74577,-891
74598,-570
74640,-652
74662,-1353
74683,-1220
74725,-822
74747,-674
74785,-917
74827,-988
74832,-424
74854,-131
74896,85
74916,573
74939,899
74981,1201
75002,1523
75023,1566
75066,1599
75087,1430
75108,999
75151,352
75171,-882
75194,-1336
75237,-1811
75258,-2846
75279,-3105
75323,-3072
75343,-2561
75364,-2295
75409,-2027
75427,-1447
75539,-1212
75625,-822
75672,-507
75677,-246
75698,-272
75743,-423
75763,-426
75784,-216
75828,-140
75848,-485
75870,-382
75914,-42
75932,-112
75954,-581
75997,-762
76018,-83
76118,-67
76164,-67
76209,-159
76287,-260
76293,-199
76337,-331
76354,-263
76375,-199
76419,-217
76438,-234
76460,-110
76504,-17
76523,-330
76546,-521
76688,-420
76735,-308
76780,313
76794,-221
76838,-91
76858,295
76880,205
76923,65
76944,-12
76965,-2
77008,55
77029,330
77050,370
77094,283
77114,199
77135,244
77179,218
77199,-32
77220,-30
77264,80
77284,176
77306,104
77349,98
77370,437
77391,571
77435,585
77455,585
77476,606
77520,516
77540,226
77561,326
77605,512
77624,291
77646,8
77822,-81
77909,-70
77955,-219
77960,-176
77980,-140
78024,-285
78043,-552
78064,-479
78108,-461
78128,-772
78150,-760
78194,-584
78213,-580
78234,-759
78278,-810
78298,-646
78320,-732
78364,-869
78383,-685
78404,-516
78449,-532
78468,-611
78490,-419
78535,-318
78554,-887
78575,-984
78620,-651
78638,-264
78659,-696
78703,-1024
78723,-274
78745,19
78787,-183
78809,-742
78830,-664
78971,-634
79017,-954
79061,-576
79079,-948
79122,-1096
79143,-471
79164,-338
79207,-558
79245,-653
79250,-270
79293,13
79313,-255
79335,-376
79377,-285
79398,-119
79419,-176
79462,-188
79484,-221
79505,-433
79548,-625
79568,-416
79589,-325
79632,-507
79653,-875
79675,-628
79718,-292
79739,-349
79760,-523
79803,-528
79823,-563
79844,-749
79887,-795
79909,-282
79930,-207
79973,-383
79994,-376
80105,-31
80189,-372
80234,-398
80244,-433
80265,-444
80308,-469
80328,-557
80351,-495
80394,-369
80414,-450
80436,-681
80478,-775
80499,-350
80520,-221
80563,-299
80601,-408
80606,-264
80649,-146
80669,-251
80690,-355
80733,-423
80755,-446
80776,-428
80819,-407
80839,-284
80860,-97
80903,82
80925,-236
80946,-549
80989,-541
81009,224
81032,196
81074,-228
81095,-469
81116,-73
81257,119
81303,-456
81347,-370
81367,-694
81410,-840
81430,-332
81451,-317
81494,-608
81516,-548
81537,-117
81579,36
81601,-718
81622,-869
81664,-672
81686,-566
81707,-851
81749,-976
81770,-336
81793,-112
81834,-168
81855,-95
81877,243
81919,371
81941,-414
81979,-624
82021,-409
82026,-12
82047,-229
82089,-448
82111,-335
82132,-233
82174,-172
82179,-81
82197,24
82218,60
82260,30
82264,61
82282,246
82394,516
82476,1537
82521,1946
82533,860
82555,82
82598,-530
82618,-1681
82639,-2375
82682,-2808
82703,-2479
82724,-2290
82768,-2271
82789,-1467
82810,-666
82854,-199
82874,-572
82895,-585
82939,-252
82959,-18
82981,-329
83024,-510
83044,-115
83065,58
83108,72
83129,26
83150,88
83193,187
83214,384
83235,337
83279,187
83317,190
83322,392
83365,454
83383,-22
83404,-160
83547,-92
83594,156
83639,778
83655,522
83699,120
83719,195
83740,312
83784,180
83803,69
83826,304
83870,430
83889,344
83910,598
83954,964
83974,937
83995,651
84040,548
84058,795
84080,859
84124,855
84145,656
84166,505
84210,524
84229,1182
84250,1319
84295,1156
84313,1018
84335,1319
84379,1550
84398,1112
84421,834
84466,788
84485,948
84506,898
84550,860
84569,1186
84681,1400
84769,1984
84816,1915
84822,1848
84842,1686
84920,1606
84927,1944
84972,1799
84988,1587
85011,1717
85056,1806
85074,1433
85095,1232
85141,1209
85159,1394
85181,1369
85226,1242
85244,1007
85265,1043
85310,1199
85329,1447
85350,1356
85396,1176
85415,1108
85436,1305
85482,1460
85499,1034
85520,639
85566,493
85584,937
85605,899
85651,496
85669,53
85691,391
85834,691
85881,391
85927,188
85941,300
85984,258
86005,430
86026,465
86070,306
86090,85
86111,273
86155,435
86175,158
86196,-29
86240,-90
86260,-138
86298,-152
86341,-85
86347,8
86366,-93
86410,-160
86430,77
86451,196
86494,217
86516,135
86537,127
86580,155
86600,235
86622,186
86664,104
86686,153
86707,132
86750,-27
86770,-106
86792,146
86834,283
86856,-299
87024,-434
87069,264
87153,422
87198,-196
87210,77
87253,168
87273,-94
87294,-124
87337,-52
87358,-59
87380,-126
87422,-146
87442,-207
87465,-259
87508,-230
87528,-123
87549,-151
87592,-141
87613,38
87635,-52
87678,-268
87698,-377
87719,-241
87762,-187
87784,-325
87822,-324
87865,-259
87870,-155
87890,-88
87933,-51
87953,-260
87976,-323
88117,-189
88164,-80
88208,-345
88225,-601
88268,-378
88288,-92
88311,-185
88354,-197
88374,301
88396,410
88439,242
88459,-148
88480,-52
88523,70
88543,-82
88566,-173
88609,-180
88630,-327
88651,-493
88694,-569
88714,-458
88735,-431
88778,-379
88799,-46
88821,-16
88864,-144
88884,-164
88906,-76
88948,-214
88969,-669
88992,-431
89034,-25
89054,18
89075,-195
89118,-166
89123,67
89141,228
89277,171
89361,-187
89405,-413
89411,-198
89454,-353
89476,-601
89497,-437
89540,-300
89560,-402
89581,-339
89623,-145
89628,20
89646,123
89667,309
89710,670
89732,1385
89753,1562
89796,1761
89816,2164
89838,2071
89882,1802
89901,1204
89924,809
89968,273
89986,-815
90008,-1311
90052,-1883
90072,-2719
90093,-2592
90138,-2242
90157,-1997
90178,-1919
90223,-1514
90242,-424
90263,-363
90308,-531
90413,-265
90460,-368
90506,32
90515,-499
90560,-647
90578,-254
90600,-62
90677,-15
90684,-102
90728,33
90747,369
90768,201
90813,-183
90833,-447
90854,-159
90899,31
90918,-341
90939,-410
90984,-195
91003,117
91024,-60
91069,-255
91087,-215
91109,-153
91153,-171
91172,-241
91195,-158
91240,-8
91258,178
91279,38
91324,-205
91343,-383
91364,-254
91409,-172
91428,-411
91546,-517
91634,89
91680,-170
91698,179
91743,-149
91762,-231
91784,-4
91829,36
91848,-301
91869,-185
91914,71
91932,83
91954,24
91998,238
92017,805
92038,629
92083,290
92122,191
92127,349
92172,400
92187,181
92209,110
92254,171
92272,505
92295,506
92340,297
92357,-6
92380,148
92425,274
92442,-260
92465,-535
92510,-475
92527,149
92550,227
92694,90
92742,-159
92789,-681
92801,-598
92846,-718
92863,-777
92886,-708
92931,-667
92948,-576
92971,-494
93016,-491
93033,-635
93054,-643
93100,-684
93119,-1037
93140,-1156
93185,-1162
93204,-1240
93226,-1302
93272,-1210
93289,-753
93310,-689
93356,-666
93375,-304
93396,-230
93441,-450
93459,-1103
93497,-1126
93541,-1001
93546,-965
93566,-990
93610,-901
93630,-538
93651,-412
93695,-349
93715,-438
93828,-529
93913,-874
93958,-639
93964,-936
93987,-633
94031,-354
94049,-520
94071,-442
94114,-124
94135,-20
94156,-232
94199,-244
94220,-74
94241,-331
94284,-627
94305,-435
94326,-222
94370,-139
94390,-8
94411,-15
94454,-180
94475,-302
94496,-147
94539,-148
94560,-628
94582,-551
94626,-194
94645,156
94666,20
94709,-103
94730,-155
94752,-204
94796,-212
94815,-118
94852,-133
94994,-173
95042,-387
95086,-631
95132,-281
95150,-179
95172,-72
95215,56
95236,-37
95257,-155
95300,-131
95319,-72
95342,-331
95386,-606
95404,-341
95427,-30
95471,8
95490,-381
95511,-282
95555,8
95575,30
95596,-151
95640,-107
95660,315
95682,134
95725,-243
95746,-167
95767,230
95811,334
95831,-348
95852,-428
95896,-186
95915,44
95938,-120
95981,-157
96000,99
96023,22
96165,-83
96212,-216
96257,194
96272,-633
96316,-437
96336,-86
96357,-404
96401,-689
96559,-471
96644,-254
96689,-36
96734,-775
96754,-460
96775,-87
96818,-14
96838,-592
96859,-648
96902,-421
96924,-73
96945,-189
96988,-321
97008,-275
97030,-153
97072,41
97094,545
97115,638
97158,652
97178,1189
97292,1635
97376,1510
97421,-525
97429,-1865
97450,-2412
97494,-2583
97514,-2207
97536,-2120
97580,-2035
97599,-1150
97620,-660
97664,-467
97685,-438
97783,-260
97830,-211
97877,-169
97922,-231
97936,27
97957,-14
98001,-189
98020,-126
98043,272
98087,596
98126,124
98130,-281
98175,-296
98190,356
98213,282
98257,-123
98276,-465
98297,-146
98440,205
98488,191
98533,22
98547,-29
98591,110
98612,-39
98633,-261
98677,-308
98696,354
98719,718
98763,804
98782,404
98803,411
98847,630
98866,655
98889,265
98933,-94
98952,-121
98973,18
99017,88
99036,127
99059,187
99103,278
99122,349
99143,311
99188,309
99207,576
99228,649
99272,548
99293,369
99314,558
99359,777
99377,686
99399,529
99443,470
99462,468
99574,476
99662,413
99742,804
99789,276
99796,492
99817,465
99862,362
99881,259
99902,370
99947,550
99966,763
99987,715
100032,627
100050,480
100072,399
100117,297
100135,122
100157,23
100202,-83
100220,-71
100243,50
100288,91
100306,-203
100328,-323
100373,-315
100391,-313
100413,-416
100457,-475
100476,-376
100497,-436
100542,-640
100561,-926
100582,-882
100726,-858
100774,-576
100820,-557
100833,-667
100876,-664
100896,-821
100918,-1037
100961,-1172
100981,-1007
101003,-993
101046,-1096
101084,-961
101089,-750
101132,-747
101153,-1056
101174,-874
101217,-626
101237,-1049
101259,-1311
101302,-1121
101322,-494
101344,-747
101387,-1033
101407,-418
101429,-106
101472,-295
101492,-991
101513,-883
101556,-707
101577,-1073
101598,-1265
101641,-1187
101662,-856
101683,-917
101726,-1012
101747,-706
101860,-467
101944,-848
101989,-1389
101998,-1170
102020,-904
102063,-744
102084,-641
102105,-652
102148,-724
102168,-739
102190,-697
102233,-765
102253,-1013
102291,-893
102335,-700
102340,-691
102360,-680
102403,-476
102423,-177
102445,-340
102488,-488
102508,-314
102530,-256
102573,-316
102593,-451
102614,-568
102658,-744
102678,-727
102699,-577
102743,-617
102763,-826
102784,-553
102827,-257
102848,-733
102871,-1017
103013,-843
103060,-454
103104,-191
103120,-163
103163,-37
103183,-181
103206,-295
103249,-393
103269,-730
103291,-788
103334,-686
103354,-504
103375,-629
103419,-794
103439,-915
103460,-930
103503,-927
103542,-799
103547,-757
103590,-787
103609,-840
103632,-766
103674,-685
103695,-805
103716,-951
103759,-1020
103779,-648
103801,-372
103843,-302
103865,-757
103887,-770
103929,-544
103950,-511
103971,-874
104013,-1139
104035,-957
104147,-866
104230,-667
104274,-544
104285,-1268
104306,-1432
104349,-1109
104369,-372
104391,-417
104433,-461
104455,130
104477,505
104519,765
104540,1083
104561,1150
104604,1193
104625,1413
104646,1369
104690,997
104711,-190
104733,-583
104777,-878
104817,-1990
104862,-3059
104879,-2659
104900,-2380
104945,-2185
104964,-1344
104986,-769
105030,-489
105049,-611
105070,-411
105115,-81
105135,-514
105157,-1036
105300,-1120
105348,-329
105394,-95
105406,-259
105451,-299
105470,-281
105491,-92
105536,190
105556,384
105577,232
105622,89
105641,30
105662,16
105706,-21
105725,-28
105746,20
105791,137
105811,507
105832,584
105877,560
105896,527
105917,524
105963,424
105980,201
106003,256
106048,381
106067,548
106088,601
106166,630
106172,569
106217,653
106234,542
106256,398
106301,399
106320,634
106433,591
106521,685
106569,892
106574,722
106592,634
106637,663
106655,791
106676,836
106721,905
106740,1027
106762,983
106807,915
106826,900
106847,857
106892,732
106911,490
106932,522
106978,598
106995,620
107018,565
107063,522
107080,483
107102,444
107147,393
107166,249
107187,195
107232,224
107251,529
107272,564
107318,430
107337,248
107358,374
107403,438
107420,-10
107443,-162
107620,-82
107710,20
107757,-523
107775,-501
107820,-746
107839,-828
107861,-350
107906,-76
107923,-932
107946,-1096
107991,-713
108008,-401
108029,-871
108075,-1147
108094,-585
108115,-445
108160,-542
108179,-479
108200,-409
108245,-518
108263,-752
108285,-674
108328,-652
108349,-909
108370,-879
108414,-706
108434,-445
108455,-478
108499,-569
108519,-668
108618,-589
108761,-658
108848,-606
108893,-451
108938,-502
108955,-397
108999,-472
109019,-611
109041,-412
109084,-284
109122,-821
109127,-863
109170,-401
109189,372
109211,26
109254,-354
109274,59
109296,228
109339,-81
109359,-737
109381,-490
109424,-250
109445,-789
109466,-957
109510,-651
109530,-74
109551,-401
109595,-721
109615,-189
109636,13
109680,-229
109700,-714
109722,-494
109765,-335
109786,-610
109894,-535
109979,-453
110025,-717
110036,-332
110057,-318
110100,-526
110121,-475
110142,-219
110186,-142
110206,-426
110227,-450
110271,-402
110292,-346
110313,-366
110356,-385
110520,-306
110608,-56
110653,24
110697,-643
110708,-864
110729,-603
110773,-509
110793,-754
110815,-655
110858,-475
110879,-625
110900,-767
111042,-688
111089,-999
111134,-1048
111150,-990
111193,-989
111214,-1049
111235,-794
111279,-452
111299,-593
111320,-925
111364,-1004
111384,-620
111405,-661
111448,-879
111469,-1060
111490,-1036
111533,-1042
111554,-920
111575,-818
111618,-820
111639,-967
111660,-969
111703,-986
111724,-1006
111745,-749
111788,-396
111808,-223
111846,-212
111889,88
111894,1122
111916,1355
111960,1408
111979,1520
112000,1514
112045,1380
112065,727
112177,124
112264,-2451
112311,-2391
112317,-1712
112336,-1423
112382,-1195
112400,-972
112422,-856
112467,-690
112484,-582
112507,-661
112552,-651
112571,-279
112592,-203
112637,-273
112656,-315
112677,-229
112722,-234
112739,-598
112762,-642
112808,-482
112825,-229
112846,-350
112891,-491
112910,-360
112932,-226
112977,-182
112996,-270
113017,-357
113062,-449
113101,-357
113106,-196
113151,-155
113165,-535
113186,-635
113330,-563
113378,-760
113425,-306
113437,-385
113482,-341
113501,26
113522,76
113567,-21
113585,-131
113607,-93
113652,-62
113671,69
113692,110
113737,-48
113756,-525
113777,-347
113822,17
113841,53
113862,-147
113907,-65
113926,378
113947,181
113993,-111
114011,147
114033,351
114078,228
114097,-59
114118,246
114163,592
114182,432
114203,195
114249,130
114266,195
114289,196
114335,234
114352,284
114463,230
114585,105
114635,86
114681,363
114686,718
114706,573
114752,292
114771,-11
114792,35
114837,7
114854,-362
114877,-328
114923,-109
114940,-115
114962,-324
115007,-266
115026,250
115047,36
115093,-384
115110,-300
115131,18
115177,26
115195,-492
115217,-510
115262,-433
115281,-568
115302,-569
115347,-425
115366,-348
115387,-484
115432,-503
115451,-158
115472,-147
115615,-345
115662,-766
115707,-399
115722,-149
115766,-312
115786,-582
115808,-460
115852,-289
115871,-478
115908,-694
115952,-674
115957,-138
115977,-163
116020,-416
116041,-565
116062,-374
116105,-305
116127,-572
116148,-577
116191,-460
116212,-295
116233,-262
116276,-233
116297,-330
116318,-383
116361,-315
116381,-107
116403,-196
116446,-337
116468,-296
116489,-220
116532,-226
116552,-46
116574,134
116616,112
116637,-352
116748,-238
116832,-645
116877,-242
116888,20
116909,182
116952,50
116973,-102
116994,185
117037,322
117057,-352
117079,-523
117122,-347
117142,-158
117180,-407
117223,-584
117229,-268
117248,-78
117292,-30
117312,42
117335,163
117378,227
117398,-9
117419,-159
117463,-233
117483,-314
117504,-370
117548,-372
117568,-178
117589,-97
117633,-60
117653,85
117674,114
117717,25
117738,-288
117759,-282
117901,-157
117947,240
117992,480
118009,18
118052,-13
118057,17
118075,-23
118096,-108
118139,-123
118159,-118
118181,-242
118223,-295
118245,76
118267,62
118309,-216
118330,-395
118351,-131
118394,-33
118414,-417
118437,-325
118513,-17
118521,-425
118564,-459
118584,-91
118605,-310
118648,-731
118668,-775
118691,-394
118734,-154
118754,-317
118776,-319
118818,-165
118839,-81
118861,-223
118904,-267
118924,-61
119034,-156
119117,-84
119162,-417
119175,74
119196,213
119239,331
119261,679
119282,1000
119325,1409
119345,1985
119444,1962
119489,1541
119535,-172
119580,-1809
119596,-2628
119617,-2757
119661,-2563
119682,-1788
119703,-1451
119748,-1107
119767,-446
119788,-343
119833,-398
119871,-377
119876,-293
119920,-345
119936,-655
119959,-558
120003,-311
120022,-238
120043,-410
120186,-477
120234,-136
120280,283
120294,198
120338,232
120357,392
120378,258
120422,-8
120443,-113
120464,125
120508,245
120527,-214
120548,-337
120593,-133
120612,333
120633,125
120678,-153
120696,91
120719,365
120764,360
120783,21
120804,129
120848,300
120867,203
120889,197
120933,366
120952,341
120973,55
121018,-39
121038,469
121059,493
121104,272
121123,194
121144,455
121320,631
121410,271
121457,213
121476,488
121521,599
121539,657
121561,566
121605,518
121624,459
121647,252
121692,74
121711,540
121732,827
121777,719
121796,211
121817,493
121862,917
121881,707
121902,357
121947,331
121966,694
121987,556
122032,304
122051,114
122072,64
122117,-50
122136,-26
122157,102
122202,121
122221,66
122242,246
122287,445
122305,179
122327,-123
122470,-273
122518,-433
122564,-361
122577,-269
122621,-350
122642,-748
122663,-734
122707,-600
122745,-581
122750,-607
122795,-524
122812,-457
122833,-612
122877,-701
122896,-511
122918,-546
122961,-701
122981,-650
123003,-502
123045,-490
123066,-466
123089,-275
123132,-228
123152,-831
123174,-861
123216,-509
123237,-165
123258,-477
123301,-641
123323,-136
123344,-63
123386,-295
123407,-597
123428,-501
123470,-492
123475,-625
123493,-749
123605,-712
123687,-103
123731,-320
123744,-320
123765,-444
123807,-497
123828,-325
123849,-204
123891,-84
123896,-11
123914,-65
123952,-258
123994,-467
124000,-396
124021,-222
124063,-162
124085,-372
124106,-427
124149,-411
124169,-219
124190,-96
124233,-71
124237,-221
124255,-477
124277,-604
124319,-460
124324,-187
124342,-83
124363,-299
124406,-660
124427,-685
124449,-315
124491,-21
124512,-190
124533,-350
124575,-275
124580,28
124598,307
124619,275
124760,-81
124806,-250
124850,-272
124870,-165
124913,16
124933,-174
124954,-415
124997,-435
125019,-120
125040,-194
125083,-354
125103,-370
125141,-297
125184,-239
125189,-144
125210,-209
125253,-356
125273,-196
125295,164
125337,416
125359,255
125381,169
125423,258
125444,392
125465,215
125507,4
125529,-101
125550,-108
125593,-202
125615,-225
125636,-16
125678,117
125699,-205
125721,-267
125764,-88
125784,26
125895,-287
125978,-486
126022,-661
126035,-393
126056,-396
126098,-499
126120,-353
126142,-131
126184,-93
126204,-475
126227,-428
126269,-202
126290,-197
126311,-424
126353,-514
126358,-383
126376,-183
126414,-124
126456,-255
126462,-487
126483,-436
126525,-392
126547,-528
126567,-533
126610,-433
126632,-130
126653,77
126695,378
126717,991
126738,1246
126781,1523
126802,1803
126823,1574
126867,1246
126887,972
126908,718
127051,116
127098,-2341
127143,-1875
127159,-1431
127203,-1094
127222,-12
127243,191
127287,57
127308,-160
127329,-67
127373,-99
127392,-439
127413,-347
127457,-111
127478,-25
127499,-59
127543,15
127562,-87
127583,-359
127627,-481
127648,-206
127686,-286
127730,-494
127736,-200
127754,182
127798,294
127817,-105
127840,-104
127884,77
127903,194
127924,38
127969,-90
127987,51
128008,160
128053,148
128072,130
128185,301
128273,406
128320,34
128325,613
128345,833
128390,611
128409,8
128430,171
128475,427
128494,205
128515,-69
128560,-135
128579,304
128600,422
128645,349
128664,106
128685,152
128730,238
128749,291
128770,282
128815,297
128834,282
128855,261
128900,372
128919,880
128940,902
128985,671
129004,530
129042,899
129087,1200
129110,236
129155,264
129173,756
129194,587
129338,277
129387,189
129434,515
129444,241
129490,287
129509,653
129530,672
129575,600
129594,518
129616,542
129661,541
129678,261
129700,-16
129745,-228
129764,-76
129785,-25
129830,-237
129849,-656
129870,-430
129916,-128
129934,-429
129956,-779
130001,-869
130018,-608
130041,-710
130086,-947
130103,-1084
130126,-953
130171,-806
130189,-597
130289,-574
130337,-349
130483,-573
130570,-606
130617,-778
130655,-623
130700,-568
130710,-877
130754,-777
130773,-589
130796,-652
130839,-707
130858,-706
130881,-743
130924,-771
130943,-488
130965,-275
131008,-237
131028,-528
131050,-484
131093,-239
131114,24
131135,-163
131179,-402
131199,-622
131220,-604
131264,-503
131284,-209
131306,-285
131349,-536
131369,-652
131391,-342
131434,-95
131455,-451
131476,-741
131618,-807
131665,-894
131710,-554
131726,-810
131770,-953
131790,-495
131812,-243
131856,-259
131874,-547
131912,-381
131956,-91
131961,-159
131981,-490
132024,-662
132045,-425
132066,-409
132110,-561
132130,-649
132152,-522
132196,-485
132214,-680
132236,-686
132280,-652
132300,-669
132321,-591
132365,-454
132386,-561
132407,-741
132451,-706
132470,-283
132491,-366
132535,-643
132556,-704
132577,-372
132621,-77
132640,-266
132751,-550
132837,-202
132883,-172
132891,-146
132912,-219
132956,-286
132976,-359
132997,-348
133041,-340
133061,-347
133083,-358
133126,-405
133147,-644
133184,-665
133228,-589
133233,-752
133253,-946
133297,-923
133316,-368
133338,-320
133382,-429
133401,-317
133424,-203
133467,-300
133486,-725
133507,-744
133551,-689
133571,-712
133592,-774
133636,-834
133656,-824
133678,-711
133721,-622
133741,-746
133763,-780
133904,-682
133951,-292
133996,-1002
134014,-892
134057,-763
134078,-775
134099,-556
134142,-61
134163,846
134184,979
134228,1091
134247,1610
134269,1679
134314,1500
134332,1130
134353,997
134399,637
134417,-715
134455,-1310
134501,-1795
134522,-2963
134568,-2897
134587,-2442
134609,-2185
134655,-1763
134671,-617
134693,-359
134739,-389
134757,-534
134778,-534
134825,-619
134842,-918
134863,-867
134910,-657
134927,-393
135037,-466
135129,212
135178,-146
135197,-149
135244,-504
135262,-408
135283,-164
135330,-75
135347,-195
135368,-184
135415,-146
135431,-173
135454,-217
135500,-254
135516,-227
135537,-143
135584,-144
135601,-541
135623,-598
135670,-367
135687,40
135708,-174
135788,-436
135794,231
135841,307
135855,-153
135878,-179
135925,34
135940,232
135962,24
136009,-186
136026,-107
136047,-45
136193,-119
136244,-35
136292,62
136297,592
136344,305
136361,-464
136383,-164
136430,376
136447,298
136468,-130
136515,-253
136531,237
136552,281
136600,176
136617,160
136638,206
136685,245
136701,551
136724,691
136772,624
136787,212
136809,156
136856,180
136872,177
136893,189
136941,217
136956,198
136979,271
137027,395
137042,165
137064,-126
137144,-188
137150,-110
137198,-546
137212,-321
137325,88
137417,-216
137466,-1088
137482,-564
137529,-772
137546,-541
137567,-332
137614,-320
137630,-520
137653,-545
137700,-589
137715,-765
137737,-730
137783,-639
137801,-681
137822,-749
137868,-722
137885,-599
137908,-676
137954,-811
137971,-844
137993,-727
138038,-617
138055,-477
138078,-430
138124,-439
138141,-621
138162,-668
138207,-658
138226,-768
138248,-919
138293,-984
138312,-707
138333,-483
138477,-320
138559,-497
138606,-498
138653,-306
138667,15
138712,-365
138729,-1042
138751,-809
138796,-518
138815,-871
138837,-1029
138882,-799
138900,-299
138921,-390
138967,-366
138986,28
139007,-248
139052,-745
139070,-669
139091,-339
139137,-443
139156,-1089
139177,-768
139223,-204
139240,-237
139262,-669
139307,-846
139325,-523
139348,-480
139394,-534
139411,-369
139432,-223
139478,-186
139495,-217
139608,-120
139698,-933
139746,-920
139766,-584
139812,-451
139830,-379
139851,-339
139930,-321
139936,-485
139983,-480
140000,-487
140021,-526
140067,-581
140085,-619
140106,-543
140152,-417
140169,-437
140191,-570
140237,-570
140254,-220
140275,-241
140321,-450
140340,-393
140361,14
140407,333
140425,41
140446,-226
140492,-248
140509,-1
140532,-106
140577,-331
140595,-473
140616,-451
140760,-549
140808,-830
140855,-490
140866,-516
140911,-525
140930,-239
140951,-272
140996,-401
141015,-411
141115,-453
141163,-625
141209,-604
141255,-357
141267,-42
141305,-85
141350,-88
141355,89
141373,72
141419,-5
141437,-89
141458,-252
141504,-523
141521,-763
141544,-643
141589,-495
141607,-46
141628,373
141673,758
141692,1207
141714,1627
141760,2145
141778,2255
141889,1849
141983,-401
142032,-2308
142048,-2161
142096,-2109
142112,-1470
142133,-838
142181,-442
142197,-610
142218,-506
142266,-177
142282,-151
142303,-396
142351,-347
142367,310
142388,274
142436,-5
142452,-112
142473,150
142521,317
142537,15
142558,-186
142759,-152
142857,27
142908,177
143056,-85
143154,260
143204,71
143222,722
143271,400
143285,199
143307,368
143355,396
143371,17
143392,-32
143441,29
143456,73
143478,147
143526,341
143540,384
143563,84
143612,-157
143626,109
143647,254
143696,173
143711,-11
143733,233
143781,529
143797,547
143818,364
143867,253
143881,252
143902,256
143951,225
143967,123
143988,127
144037,254
144051,798
144074,933
144221,853
144275,403
144325,301
144376,697
144386,430
144408,188
144490,57
144496,173
144545,156
144554,-42
144577,-176
144626,-201
144640,73
144662,62
144710,-119
144726,-281
144747,-210
144796,-274
144810,-530
144832,-383
144881,-227
144896,-655
144917,-751
144966,-454
144981,-69
145002,-422
145051,-675
145066,-93
145087,29
145135,-270
145151,-766
145172,-594
145220,-410
145236,-390
145354,-299
145445,-186
145495,-679
145507,-863
145553,-777
145570,-690
145592,-674
145638,-551
145655,-236
145676,-240
145722,-249
145741,-56
145762,-83
145841,-299
145847,-637
145893,-529
145910,-460
145931,-506
145977,-549
145994,-415
146016,-250
146061,-147
146080,-85
146101,1
146147,22
146165,-362
146187,-428
146232,-215
146250,12
146271,-357
146316,-697
146335,-295
146356,-49
146500,-195
146549,-413
146597,-462
146607,-427
146653,-467
146670,-464
146692,-621
146738,-843
146755,-845
146778,-622
146824,-497
146841,-615
146862,-558
146908,-322
146926,-52
146947,-283
146993,-566
147010,-593
147033,-587
147079,-830
147118,-1229
147165,-399
147180,-326
147202,-421
147248,-209
147265,362
147287,168
147333,-219
147350,-756
147371,-936
147418,-1064
147435,-809
147457,-680
147503,-811
147521,-1002
147634,-576
147726,-654
147775,-365
147791,-791
147838,-650
147855,-420
147877,-598
147923,-806
147941,-580
147962,-369
148008,-382
148026,-737
148047,-748
148093,-666
148111,-776
148132,-954
148178,-1043
148195,-795
148217,-688
148263,-732
148281,-855
148302,-764
148348,-712
148365,-1007
148403,-1061
148449,-915
148470,-981
148516,-1177
148534,-1021
148555,-921
148601,-976
148620,-1322
148642,-1384
148787,-1302
148837,-693
148885,-762
148892,-1112
148938,-1058
148955,-1188
148977,-1382
149023,-1359
149040,-789
149062,-711
149108,-726
149125,-91
149146,366
149192,566
149210,721
149231,1064
149278,1356
149295,1069
149317,851
149364,732
149380,-259
149403,-1173
149450,-1873
149466,-2404
149487,-2758
149535,-3159
149551,-2972
149572,-2550
149621,-2250
149635,-1621
149673,-1198
149722,-1043
149741,-1096
149790,-646
149804,-712
149919,-1072
150014,-675
150065,-714
150076,-689
150124,-597
150140,-832
150161,-893
150209,-747
150225,-636
150246,-864
150295,-1030
150309,-721
150332,-598
150380,-662
150394,-718
150417,-597
150465,-594
150480,-1014
150502,-1053
150550,-855
150566,-523
150587,-681
150635,-928
150650,-864
150672,-550
150720,-361
150735,-724
150757,-916
150804,-891
150820,-649
150841,-651
150889,-680
150905,-635
150943,-670
151089,-748
151141,-852
151191,-171
151240,-447
151259,-524
151307,-525
151323,-407
151346,-289
151394,-384
151409,-859
151431,-671
151478,-268
151494,-247
151515,-467
151563,-385
151579,27
151600,-94
151648,-157
151663,193
151685,-91
151733,-682
151748,-642
151770,-81
151818,28
151835,-847
151933,-737
151983,-92
152033,-466
152082,-595
152088,-599
152107,-581
152254,-611
152306,-1044
152355,-671
152360,-1006
152408,-1008
152421,-700
152442,-795
152490,-1031
152529,-1145
152578,-977
152590,-1026
152611,-979
152659,-901
152675,-847
152696,-928
152743,-1085
152761,-1364
152782,-1313
152828,-1232
152845,-1302
152866,-1237
152912,-986
152930,-825
152952,-1083
152997,-1205
153016,-715
153037,-783
153082,-1226
153101,-1518
153122,-1111
153168,-857
153185,-1267
153207,-1315
153252,-1085
153271,-886
153387,-1008
153476,-1463
153524,-931
153542,-1163
153587,-1196
153604,-904
153627,-806
153673,-917
153690,-1230
153711,-1108
153757,-901
153795,-1034
153800,-1297
153846,-1437
153860,-1342
153881,-1290
153927,-1264
153946,-1181
153967,-1068
154013,-893
154030,-656
154052,-713
154097,-806
154116,-714
154137,-742
154183,-992
154200,-1318
154223,-1035
154269,-730
154286,-1061
154307,-1328
154353,-1261
154371,-738
154392,-794
154536,-1025
154585,-979
154632,-1285
154643,-1420
154688,-1104
154706,-718
154727,-1005
154773,-1380
154792,-1388
154813,-1137
154859,-1005
154876,-1317
154898,-1541
154944,-1596
154982,-1112
155029,-861
155046,-1179
155067,-1194
155113,-1114
155131,-1111
155152,-1185
155198,-1253
155215,-1388
155237,-1405
155283,-1315
155301,-1054
155323,-1108
155368,-1257
155386,-1188
155407,-918
155453,-756
155471,-1228
155493,-1469
155538,-1410
155557,-1200
155669,-1489
155757,-1130
155804,-1196
155810,-1249
155828,-1463
155873,-1549
155892,-1232
155913,-1169
155958,-1279
155977,-1376
155999,-1264
156043,-1218
156062,-1296
156084,-1204
156129,-1078
156146,-1085
156184,-1047
156229,-911
156235,-836
156253,-926
156297,-962
156316,-1176
156338,-1449
156382,-1581
156403,-1172
156424,-1117
156469,-1289
156488,-1315
156509,-950
156553,-564
156572,-55
156594,191
156638,493
156657,1140
156678,1341
156822,1349
156871,-1060
156918,-2610
156930,-3539
156976,-3662
156992,-2691
157014,-2185
157061,-1949
157078,-1478
157100,-967
157147,-539
157162,-657
157185,-943
157232,-1094
157248,-958
157269,-842
157316,-794
157333,-966
157354,-998
157571,-830
157665,-841
157714,-1021
157761,-1030
157770,-932
157816,-1156
157833,-1218
157945,-1042
158036,-777
158084,-835
158104,-1223
158150,-1351
158167,-1163
158188,-1005
158234,-888
158252,-905
158273,-987
158319,-976
158338,-634
158359,-598
158405,-682
158422,-683
158443,-638
158489,-690
158508,-585
158529,-320
158575,-224
158592,-800
158613,-854
158659,-560
158678,-254
158699,-534
158745,-739
158763,-402
158784,-272
158830,-337
158847,-381
158868,-262
158914,-232
158953,-425
158958,-339
159102,-145
159152,-350
159199,-414
159205,44
159251,122
159268,-318
159290,-426
159336,-323
159353,-210
159375,-426
159421,-675
159439,-644
159460,-359
159506,-118
159523,-290
159545,-555
159591,-652
159609,-386
159630,-424
159676,-624
159693,-688
159715,-589
159761,-656
159778,-870
159800,-674
159846,-491
159863,-898
159885,-1040
159930,-887
159949,-749
159971,-963
160016,-1087
160033,-1042
160055,-1195
160100,-1344
160119,-1040
160236,-877
160356,-892
160404,-1313
160449,-941
160454,-634
160474,-984
160518,-1149
160537,-563
160560,-569
160603,-920
160622,-903
160644,-383
160687,-144
160707,-827
160729,-915
160772,-651
160792,-662
160814,-1093
160857,-1283
160878,-827
160899,-769
160942,-816
160963,-307
160984,-19
161027,-45
161047,-246
161070,-85
161114,-4
161132,-453
161154,-560
161197,-515
161218,-746
161239,-893
161381,-741
161428,-116
161473,-53
161490,-193
161534,-440
161553,-710
161576,-446
161620,-174
161658,-517
161663,-787
161707,-778
161724,-353
161745,-305
161789,-392
161809,-585
161831,-557
161874,-413
161893,-156
161916,-244
161960,-416
161979,-471
162000,-414
162043,-461
162064,-644
162085,-594
162129,-499
162149,-415
162170,-315
162214,-135
162234,10
162256,-124
162299,-266
162320,-193
162341,-54
162384,-11
162405,-322
162516,-430
162601,-670
162646,-234
162655,-358
162754,-199
162799,242
162844,91
162889,86
162906,-273
162927,-101
162971,84
162991,-197
163029,-392
163073,-354
163079,-7
163098,-12
163142,-69
163161,10
163184,-7
163227,-157
163246,-389
163267,-266
163311,-128
163332,-420
163353,-627
163397,-561
163417,29
163438,-58
163482,-380
163501,-453
163522,-264
163665,-249
163712,-226
163758,402
163773,-211
163817,-654
163838,165
163859,610
163903,509
163922,-29
163943,245
163987,675
164008,834
164029,816
164073,1092
164092,2136
164114,2398
164159,2415
164177,2237
164198,1972
164244,1433
164263,-60
164284,-671
164362,-1239
164369,-2692
164414,-2428
164431,-1440
164453,-1205
164498,-977
164517,-118
164538,112
164584,86
164602,227
164624,408
164669,299
164686,-376
164798,-262
164887,-32
164935,203
164940,232
164959,162
165004,65
165021,394
165044,582
165090,503
165107,249
165129,411
165175,535
165192,194
165213,139
165259,330
165278,476
165299,290
165345,221
165363,661
165384,820
165430,778
165447,488
165469,487
165515,591
165532,513
165555,198
165601,-45
165618,282
165639,458
165718,368
165725,521
165771,743
165786,494
165808,442
165952,511
166002,682
166049,401
166058,1158
166105,1022
166122,271
166143,359
166189,607
166207,549
166230,413
166276,468
166293,901
166314,941
166361,818
166378,485
166399,563
166446,849
166463,1041
166484,700
166531,441
166548,871
166570,967
166616,644
166633,184
166655,562
166701,919
166718,530
166740,358
166786,585
166803,1048
166825,815
166871,533
166889,607
166910,729
166956,731
166974,664
167087,609
167211,116
167261,44
167308,3
167327,-533
167373,-655
167390,-679
167413,-586
167458,-562
167475,-851
167496,-976
167542,-973
167560,-913
167582,-980
167627,-1053
167646,-924
167667,-812
167711,-784
167731,-941
167753,-999
167797,-990
167816,-856
167837,-828
167881,-839
167901,-803
167923,-694
167966,-637
167987,-833
168008,-915
168051,-866
168072,-704
168093,-758
168234,-819
168281,-859
168325,-1061
168343,-1019
168386,-883
168406,-803
168428,-811
168471,-701
168491,-522
168529,-744
168572,-993
168578,-763
168599,-550
168642,-568
168662,-676
168684,-471
168727,-311
168747,-479
168768,-438
168812,-242
168832,-319
168854,-646
168897,-840
168917,-626
168938,-510
168982,-506
169002,-564
169024,-507
169067,-371
169087,-81
169108,-128
169152,-326
169172,-646
169193,-588
169237,-491
169257,-643
169369,-780
169453,-503
169498,-452
169508,-649
169530,-630
169573,-645
169593,-812
169614,-794
169657,-744
169678,-778
169699,-693
169742,-495
169781,-336
169786,-420
169829,-434
169848,-422
169869,-640
169912,-890
169933,-815
169954,-687
169997,-765
170018,-1049
170039,-837
170083,-484
170103,-391
170125,-654
170168,-788
170189,-401
170210,-257
170253,-315
170274,-546
170295,-530
170338,-483
170358,-373
170380,-350
170521,-474
170568,-501
170612,-573
170631,-295
170674,-444
170694,-748
170716,-748
170759,-781
170779,-975
170801,-922
170843,-773
170864,-635
170885,-712
170928,-798
170949,-759
170970,-611
171046,-469
171055,-722
171098,-628
171119,-73
171140,-60
171183,-250
171204,-426
171225,-394
171268,-479
171289,-817
171310,-783
171353,-610
171373,-304
171395,-133
171438,201
171458,1189
171480,1514
171524,1639
171544,1896
171654,2068
171742,46
171788,-2490
171794,-2394
171816,-2281
171860,-2303
171879,-1859
171901,-1356
171946,-957
171965,-443
171986,-104
172031,164
172050,-43
172071,-243
172116,-267
172134,-157
172157,-206
172202,-285
172219,-432
172242,-488
172287,-439
172325,-43
172371,60
172388,101
172409,197
172454,272
172473,325
172495,277
172540,127
172559,-10
172580,202
172625,427
172644,366
172665,298
172809,345
172858,491
172905,-6
172915,536
172961,509
172979,86
173001,41
173046,60
173065,77
173086,91
173131,0
173150,-358
173171,-195
173216,282
173235,934
173256,846
173302,814
173320,1494
173340,1809
173386,1848
173406,1462
173427,1370
173473,1447
173490,1871
173589,1908
173637,1603
173685,1607
173733,1624
173742,1730
173780,1644
173826,1633
173938,1675
174028,1469
174077,1224
174097,1426
174143,1492
174160,896
174182,670
174227,807
174245,1297
174266,1086
174312,729
174329,778
174351,1051
174397,1053
174414,372
174437,300
174483,513
174500,634
174521,334
174567,92
174585,151
174606,114
174652,-116
174670,-245
174692,58
174737,299
174755,-98
174776,-320
174822,-232
174841,90
174862,-175
174908,-542
174925,-433
174947,-163
175092,-105
175141,-228
175187,-397
175198,-436
175242,-363
175281,-245
175285,-300
175330,-324
175345,-180
175367,-260
175411,-517
175431,-825
175452,-696
175497,-568
175515,-755
175538,-804
175583,-683
175601,-480
175623,-539
175667,-500
175686,-137
175707,-154
175752,-278
175771,18
175793,232
175838,140
175857,-314
175878,-210
175922,-117
175941,-702
175962,-867
176007,-628
176026,-129
176049,-346
176093,-567
176112,13
176225,367
176312,-272
176358,-633
176364,-341
176384,-236
176428,-231
176447,-177
176469,-212
176513,-378
176551,-511
176556,-296
176601,-75
176617,-123
176639,-197
176684,-150
176703,-82
176724,-282
176768,-529
176787,-606
176809,-510
176853,-512
176872,-531
176893,-290
176938,-11
176957,-180
176980,-417
177024,-397
177043,-96
177064,-334
177109,-728
177128,-887
177149,-691
177194,-559
177213,-484
177234,-434
177378,-373
177426,-273
177472,-190
177485,-504
177529,-276
177548,46
177569,-200
177614,-339
177633,139
177654,155
177699,-124
177718,-153
177741,109
177785,102
177824,-283
177829,21
177873,473
177889,288
177910,-89
177954,-162
177973,102
177996,-40
178040,-199
178058,-26
178080,-39
178123,-250
178144,-381
178165,-193
178209,-106
178229,-394
178251,-434
178294,-311
178315,-71
178336,-110
178380,-218
178398,-331
178511,-307
178597,-475
178643,-316
178650,45
178671,92
178715,-15
178734,-332
178757,-400
178800,-433
178819,-503
178841,-456
178884,-316
178905,110
178926,453
178970,974
178990,1868
179012,1841
179056,1700
179075,2081
179113,2184
179159,1730
179180,-497
179225,-810
179244,-1855
179266,-2488
179311,-2932
179328,-2943
179351,-2483
179397,-1869
179414,-1205
179436,-1174
179481,-1001
179499,-241
179520,-150
179664,-349
179713,-213
179760,-12
179771,30
179816,-31
179835,-179
179856,-114
179902,-20
179919,-2
179942,53
179987,171
180005,156
180026,33
180071,30
180090,266
180112,281
180158,248
180175,431
180196,607
180242,753
180260,812
180281,650
180327,384
180344,137
180367,214
180446,243
180453,-84
180499,-19
180514,392
180536,543
180582,535
180599,220
180621,187
180667,245
180684,161
180797,115
180888,472
180936,626
180955,1209
181002,1025
181018,-114
181041,25
181087,532
181104,498
181126,89
181172,75
181189,778
181211,674
181257,358
181274,522
181296,688
181342,455
181359,-77
181381,353
181427,921
181444,732
181466,322
181512,294
181530,993
181551,1004
181598,733
181615,374
181636,436
181683,501
181700,416
181722,335
181768,271
181784,191
181822,213
181966,278
182017,-182
182065,22
182112,7
182119,-227
182140,-106
182186,97
182203,-46
182225,-462
182270,-818
182289,-663
182311,-388
182357,-342
182374,-813
182395,-807
182442,-531
182459,-295
182480,-556
182526,-772
182544,-606
182566,-546
182610,-665
182629,-854
182651,-749
182695,-635
182714,-611
182737,-579
182781,-503
182800,-425
182821,-448
182865,-484
182885,-517
182907,-547
182951,-625
182970,-884
182991,-900
183133,-779
183181,-520
183226,-442
183265,-280
183310,-383
183325,-360
183369,-98
183390,-277
183411,-635
183455,-689
183474,-24
183495,-73
183539,-481
183560,-744
183581,-415
183625,-229
183644,-535
183665,-487
183710,-247
183730,-287
183751,-542
183796,-626
183814,-438
183836,-556
183880,-779
183900,-767
183922,-554
183966,-407
183985,-402
184006,-426
184050,-415
184069,-288
184092,-264
184136,-332
184155,-494
184266,-396
184352,-391
184421,-99
184467,-300
184513,-252
184558,-338
184572,-374
184593,-479
184671,-621
184679,-591
184723,-663
184742,-598
184763,-258
184808,4
184826,-255
184848,-298
184892,-92
184912,-125
184934,-559
184978,-839
184997,-438
185018,-263
185062,-297
185083,-286
185104,-134
185148,-34
185167,-46
185188,-50
185232,-91
185252,-305
185273,-318
185415,-203
185462,-340
185507,-226
185524,-319
185567,-316
185588,-192
185609,-198
185652,-247
185672,-279
185694,-313
185736,-409
185757,-471
185778,-387
185821,-374
185843,-642
185864,-616
185907,-365
185946,-45
185951,-219
185993,-391
186012,-241
186034,-231
186076,-434
186081,-659
186099,-651
186121,-421
186163,-261
186184,-600
186205,-601
186248,-267
186270,142
186291,-179
186334,-513
186354,-172
186376,201
186419,369
186439,410
186550,649
186635,2166
186681,777
186689,-128
186712,-658
186756,-1275
186774,-2414
186796,-2538
186840,-2276
186859,-1571
186881,-1465
186925,-1328
186944,-416
186967,-32
187011,12
187030,-178
187052,-50
187096,58
187114,-158
187136,-169
187213,12
187221,211
187266,143
187284,229
187306,233
187350,153
187369,-26
187390,-48
187435,6
187453,208
187476,238
187521,211
187540,245
187561,305
187704,269
187752,-19
187798,179
187811,-14
187855,83
187874,375
187897,316
187942,229
187960,325
187982,386
188026,423
188045,612
188067,633
188111,501
188130,288
188152,346
188196,398
188215,470
188236,594
188281,620
188300,158
188321,105
188366,295
188385,193
188406,-168
188451,-223
188470,764
188493,1051
188690,961
188878,639
188968,886
189016,724
189062,1139
189073,1223
189118,1062
189135,868
189157,826
189202,717
189221,360
189242,220
189287,174
189306,292
189327,241
189373,39
189391,-180
189413,56
189458,297
189476,-51
189498,-340
189543,-328
189561,163
189583,88
189628,-178
189646,-227
189668,104
189712,368
189731,-16
189753,-383
189797,-483
189816,-162
189839,-332
189884,-722
189901,-745
190011,-369
190097,-466
190143,-724
190152,-576
190173,-475
190216,-382
190237,-248
190275,-335
190318,-461
190323,-334
190342,-214
190385,-303
190406,-752
190427,-665
190470,-391
190492,-165
190513,-340
190556,-458
190576,-121
190598,74
190640,42
190662,-390
190684,-412
190726,-249
190747,-77
190768,-208
190811,-339
190833,-266
190854,-207
190897,-213
190917,-194
190938,-135
190981,-125
191001,-268
191023,-277
191164,-217
191210,-122
191254,153
191273,-357
191316,-510
191338,128
191359,330
191402,193
191422,63
191444,386
191486,633
191508,304
191546,63
191588,-47
191594,-124
191614,-176
191656,-247
191678,-407
191700,-378
191742,-256
191763,-162
191785,-228
191828,-237
191848,-134
191869,-180
191912,-196
191932,18
191954,5
191996,-125
192018,-158
192040,-101
192082,-177
192103,-328
192124,-150
192167,24
192189,-121
192299,-206
192382,-320
192427,208
192439,335
192460,341
192503,323
192523,406
192545,433
192587,322
192609,-187
192631,-234
192673,-47
192694,149
192715,-103
192757,-301
192779,258
192801,497
192876,274
192884,-212
192926,84
192948,-345
192969,-607
193012,-461
193032,-54
193055,-307
193097,-565
193118,-165
193139,143
193181,216
193186,96
193204,-23
193226,-34
193268,49
193290,119
193311,-5
193452,-197
193498,-242
193542,-458
193560,-190
193603,-92
193625,-406
193646,-619
193688,-752
193709,-670
193732,-488
193774,-394
193795,-789
193816,-884
193858,-688
193880,-385
193902,-530
193944,-491
193965,710
193986,1277
194029,1501
194049,1671
194071,1933
194114,2231
194153,2262
194158,1748
194202,972
194219,-204
194242,-445
194286,-859
194305,-2437
194326,-2858
194370,-2729
194391,-1984
194413,-1798
194457,-1599
194476,-869
194586,-549
194673,-519
194719,-577
194725,-303
194748,-196
194792,-111
194811,-146
194832,-312
194877,-430
194895,-119
194917,31
194961,-41
194981,-259
195003,-118
195047,56
195066,113
195087,63
195131,5
195152,7
195250,212
195296,330
195343,247
195388,-94
195402,35
195423,179
195468,241
195487,428
195508,563
195586,608
195592,445
195736,391
195784,245
195830,362
195844,335
195889,128
195908,278
195929,512
195974,546
195992,347
196014,477
196058,692
196077,743
196099,701
196144,756
196162,836
196184,807
196229,839
196247,1012
196269,993
196314,951
196333,947
196354,856
196400,714
196417,850
196438,1033
196483,1038
196502,752
196524,816
196569,1000
196588,1026
196609,843
196655,647
196672,489
196695,604
196740,739
196757,439
196871,167
196959,418
197006,235
197012,311
197050,336
197094,225
197114,-122
197159,-56
197177,-61
197199,-33
197243,18
197262,-317
197283,-541
197328,-521
197347,-159
197368,-312
197413,-612
197432,-437
197454,-68
197499,48
197517,-366
197539,-366
197582,-236
197603,-414
197624,-596
197667,-580
197688,-400
197709,-488
197752,-510
197773,-83
197794,-29
197837,-221
197857,-499
197879,-347
198020,-200
198067,54
198111,-45
198129,-224
198172,-209
198193,-113
198214,-142
198257,-144
198277,94
198300,132
198343,43
198381,109
198386,264
198429,219
198448,-87
198469,178
198512,530
198534,78
198555,-311
198598,-230
198618,351
198640,103
198683,-322
198703,-393
198724,-174
198767,-3
198789,211
198810,157
198853,-18
198873,53
198895,320
198938,359
198958,-196
198979,-147
199022,190
199044,444
199154,268
199238,-46
199283,62
199293,164
199316,149
199359,154
199380,432
199401,551
199444,493
199464,271
199486,360
199529,449
199549,-59
199570,-295
199614,-213
199634,39
199655,-237
199732,-555
199740,-33
199783,29
199804,-8
199825,125
199868,220
199889,100
199910,93
199953,116
199974,-116
199995,-204
200038,-75
200059,343
200080,372
200123,309
200144,172
200165,159
200306,226
200352,172
200396,161
200415,652
200458,544
200478,-252
200501,-137
200544,204
200564,-239
200586,-721
200628,-708
200649,99
200672,47
200714,-199
200735,-27
200756,161
200798,84
200819,-268
200842,-160
200884,1
200904,-149
200926,-385
200968,-528
200990,-439
201012,-341
201087,-274
201095,-265
201138,-245
201158,134
201180,379
201222,414
201244,-308
201266,-615
201308,-602
201329,-343
201440,-529
201524,539
201569,1590
201578,1958
201601,2155
201645,2357
201664,1959
201686,1326
201731,807
201749,279
201771,-265
201815,-1072
201834,-2122
201856,-2205
201900,-2261
201919,-2126
201941,-1678
201987,-1144
202004,-508
202026,-302
202071,-117
202090,-195
202111,-366
202157,-467
202174,-532
202196,-573
202241,-498
202260,-21
202281,92
202327,50
202366,3
202412,155
202429,56
202450,62
202594,149
202642,347
202689,-53
202700,137
202745,256
202764,230
202785,212
202830,206
202849,54
202871,14
202916,81
202934,313
202956,282
203001,180
203020,134
203041,242
203087,295
203104,54
203127,-25
203172,29
203189,158
203212,147
203257,167
203275,279
203296,245
203341,191
203360,185
203381,151
203427,90
203445,226
203467,334
203512,328
203531,272
203552,503
203597,762
203615,567
203728,317
203817,610
203865,608
204061,760
204194,250
204243,231
204290,173
204301,304
204347,460
204364,203
204385,28
204431,99
204449,543
204471,540
204516,370
204534,106
204555,200
204601,353
204620,304
204641,96
204687,-46
204704,-38
204727,-82
204870,-200
204919,-831
204967,-428
204976,-856
205021,-848
205040,-457
205062,-449
205106,-589
205125,-869
205146,-886
205190,-843
205209,-686
205232,-643
205276,-712
205295,-907
205316,-750
205360,-473
205381,-339
205402,-464
205446,-456
205465,-398
205503,-580
205547,-664
205552,-258
205572,-393
205616,-824
205635,-598
205656,49
205700,255
205721,-398
205742,-145
205786,387
205805,7
205828,-551
205872,-577
205890,-81
206006,-435
206109,25
206154,-197
206202,-220
206247,-191
206292,-258
206308,-203
206329,-65
206373,50
206393,273
206415,372
206459,313
206478,-267
206499,-343
206543,-120
206564,145
206585,-143
206629,-387
206648,80
206670,383
206714,407
206734,172
206755,210
206799,237
206818,78
206840,137
206884,340
206922,465
206927,309
206971,210
206989,311
207010,270
207153,161
207201,-156
207246,194
207260,159
207305,229
207324,114
207345,70
207389,231
207410,474
207431,109
207475,-287
207494,45
207515,360
207560,288
207580,-239
207601,-57
207645,286
207664,463
207686,492
207730,688
207749,841
207772,562
207816,298
207835,466
207856,602
207900,515
207920,49
207941,22
207985,163
208004,306
208027,125
208071,-73
208089,27
208111,137
208154,81
208175,-98
208288,44
208373,226
208452,-302
208498,217
208508,-261
208530,-37
208573,190
208594,-31
208615,-16
208659,317
208679,734
208700,430
208744,132
208763,473
208784,628
208828,367
208849,-455
208870,-257
208914,265
208934,710
208956,577
209000,651
209018,1673
209040,2100
209084,2235
209103,2225
209125,2307
209170,2340
209189,1810
209211,1272
209256,769
209274,153
209295,-222
209439,-763
209488,-1489
209536,-611
209546,-256
209593,-33
209610,496
209631,492
209678,336
209695,204
209716,228
209795,226
209802,302
209848,426
209864,598
209885,605
209932,606
209949,610
209970,508
210017,335
210034,205
210055,291
210101,384
210119,532
210140,600
210186,603
210204,625
210225,744
210271,763
210289,369
210310,407
210357,653
210374,450
210395,60
210441,9
210459,626
210572,532
210663,656
210711,295
210729,454
210776,622
210793,631
210816,742
210862,911
210878,641
210899,466
210946,621
210963,943
210986,597
211032,313
211048,1042
211069,1395
211116,1277
211134,926
211171,1133
211218,1227
211239,396
211286,559
211303,750
211325,535
211371,404
211389,823
211410,1000
211457,921
211472,567
211495,668
211542,878
211558,829
211579,642
211724,612
211774,821
211823,741
211830,0
211877,146
211894,483
211915,137
211962,-211
211979,314
212001,699
212047,662
212064,126
212086,169
212132,241
212149,-181
212171,-326
212217,-246
212235,-225
212256,-422
212302,-466
212319,35
212340,18
212386,-344
212404,-769
212425,-436
212471,-87
212488,-419
212526,-725
212572,-655
212578,58
212596,-48
212640,-498
212659,-866
212681,-534
212725,-286
212744,-684
212859,-741
212945,-516
212991,-409
212997,-869
213017,-681
213060,-491
213079,-713
213101,-788
213145,-632
213165,-273
213187,-347
213231,-451
213249,-164
213271,-3
213315,-97
213335,-664
213356,-646
213400,-438
213421,-393
213442,-560
213486,-605
213504,-341
213527,-274
213571,-290
213590,-415
213611,-465
213656,-480
213676,-585
213697,-736
213742,-769
213780,-236
213785,-57
213829,-136
213846,-181
213868,70
214010,205
214058,-383
214103,-162
214117,-341
214162,-543
214181,-385
214202,-109
214246,62
214266,-297
214288,-588
214332,-593
214351,102
214372,104
214416,-295
214437,-693
214458,-353
214502,-101
214521,-391
214543,-333
214587,-52
214606,-210
214627,-535
214672,-497
214692,64
214713,-210
214758,-653
214776,-361
214798,73
214842,170
214861,-183
214884,-222
214928,-271
214947,-472
214968,-379
215013,-251
215031,-436
215167,-505
215254,31
215300,-61
215306,-90
215350,-163
215365,127
215388,275
215432,229
215451,-37
215472,12
215516,114
215536,-237
215558,-639
215601,-816
215622,-168
215643,17
215686,-244
215707,-850
215728,-597
215772,-223
215792,-308
215813,-601
215857,-720
215876,-550
215899,-445
215942,-365
215961,-340
215983,-371
216026,-387
216047,-442
216068,-532
216112,-641
216132,-831
216153,-833
216197,-728
216301,-493
216347,12
216391,-338
216404,-123
216448,179
216468,698
216506,1010
216550,1285
216555,1369
216575,1469
216619,1787
216639,1808
216660,1065
216705,203
216724,-427
216745,-572
216790,-1153
216809,-2860
216908,-3039
216955,-1798
217002,-772
217049,-85
217059,-172
217081,-400
217126,-551
217145,-390
217166,-301
217212,-297
217229,-206
217252,-111
217297,-85
217315,-6
217431,176
217520,-245
217567,-253
217585,186
217630,394
217649,-42
217671,-219
217716,-123
217735,169
217756,69
217801,-20
217820,180
217841,204
217887,113
217925,130
217971,202
217988,12
218010,32
218055,102
218074,242
218095,334
218140,369
218159,134
218180,56
218225,56
218244,-98
218265,-229
218311,-203
218329,-5
218351,-69
218396,-138
218414,111
218436,166
218580,67
218628,449
218675,893
218685,417
218731,402
218750,708
218771,610
218817,464
218834,614
218855,674
218901,591
218920,549
218941,573
218987,445
219004,120
219025,209
219071,352
219090,257
219111,246
219157,375
219174,711
219197,816
219243,894
219260,705
219298,549
219344,556
219365,657
219411,329
219429,79
219451,239
219496,360
219514,102
219535,-140
219580,-259
219599,-6
219712,31
219802,-350
219850,-652
219869,-690
219915,-656
219933,-390
219954,-573
220000,-803
220018,-489
220039,-284
220085,-400
220104,-781
220125,-641
220170,-426
220188,-240
220210,-214
220254,-277
220274,-632
220295,-558
220339,-283
220359,-333
220381,-706
220424,-865
220443,-385
220465,-286
220508,-334
220529,-282
220550,-316
220594,-486
220632,-402
220637,-96
220681,-10
220700,-625
220721,-673
220863,-385
220910,-742
220956,-146
220971,-89
221015,-304
221034,174
221056,693
221099,845
221120,-76
221141,-369
221185,-275
221205,-116
221227,-457
221271,-725
221289,-141
221311,184
221355,86
221375,-352
221396,-81
221440,269
221461,-73
221482,-406
221526,-378
221545,199
221566,150
221610,-47
221630,-21
221651,65
221695,-1
221715,-117
221737,-4
221780,54
221801,-196
221822,-257
221866,-184
221885,-54
221998,-119
222117,153
222164,58
222209,-329
222218,-202
222241,-2
222285,21
222303,-154
222325,-95
222369,-30
222389,-71
222410,21
222454,209
222475,435
222496,456
222540,502
222559,542
222580,457
222624,356
222644,170
222666,51
222709,-48
222730,-146
222751,-232
222795,-330
222815,-352
222837,-321
222880,-345
222899,-344
222920,-211
222964,-60
222985,38
223006,31
223147,22
223194,-290
223239,-595
223256,-77
223299,100
223320,-303
223341,-506
223384,-439
223405,-4
223426,-33
223502,-205
223510,-358
223554,-321
223574,-281
223596,-273
223639,-294
223659,-349
223681,-313
223724,-238
223744,-68
223766,28
223809,168
223829,727
223851,1087
223895,1363
223915,1562
223936,1708
223981,1896
224000,1654
224022,1151
224067,630
224084,-197
224105,-752
224150,-1432
224169,-2565
224281,-2839
224370,-1744
224418,-336
224423,71
224441,-98
224487,-376
224504,-563
224526,-474
224572,-414
224591,-379
224612,-291
224658,-176
224675,68
224696,185
224742,202
224780,-113
224785,-237
224831,-295
224845,-646
224867,-808
224913,-709
224930,-301
224951,-466
224997,-724
225016,-356
225037,-10
225083,-15
225100,-618
225121,-534
225167,-150
225186,201
225208,-11
225253,-153
225271,190
225292,256
225437,58
225486,-274
225534,170
225543,-228
225589,-170
225606,57
225627,-228
225673,-472
225691,99
225712,293
225758,53
225777,-293
225798,-25
225844,104
225862,-298
225883,-142
225929,274
225946,298
225968,1
226013,-3
226031,540
226068,467
226115,157
226120,-81
226138,104
226185,294
226202,228
226223,46
226269,-31
226286,448
226308,657
226354,588
226371,228
226393,384
226439,669
226456,677
226571,455
226663,173
226711,230
226728,-193
226774,33
226791,105
226813,-107
226859,-210
226876,140
226898,203
226944,29
226961,-452
226983,-523
227029,-553
227047,-623
227068,-599
227114,-585
227131,-770
227153,-730
227199,-490
227216,-246
227238,-482
227284,-717
227301,-732
227324,-758
227370,-869
227387,-858
227425,-770
227472,-734
227493,97
227539,229
227556,-552
227577,-789
227721,-701
227826,-1405
227915,-833
227962,-789
227973,-1200
227994,-968
228039,-658
228058,-569
228079,-508
228124,-335
228143,-576
228164,-918
228209,-971
228228,-538
228249,-652
228294,-924
228313,-776
228334,-490
228379,-375
228398,-493
228419,-501
228464,-504
228483,-587
228505,-621
228549,-688
228568,-884
228590,-928
228635,-929
228654,-766
228675,-587
228720,-495
228737,-958
228851,-1120
228972,-936
229021,-626
229067,-773
229072,-621
229093,-438
229139,-392
229156,-736
229177,-725
229222,-537
229241,-403
229262,-523
229307,-615
229326,-645
229348,-670
229393,-648
229412,-490
229433,-484
229478,-526
229497,-578
229518,-596
229564,-620
229582,-535
229604,-502
229649,-546
229666,-458
229688,-214
229733,-52
229751,-429
229773,-587
229818,-484
229837,-310
229858,-571
230001,-831
230050,-327
230096,-219
230108,-385
230153,-449
230172,-520
230194,-640
230271,-714
230278,-72
230322,-287
230341,-1117
230363,-1059
230407,-776
230426,-873
230448,-1064
230492,-919
230512,-230
230534,-251
230578,-430
230597,-373
230618,-302
230662,-434
230682,-835
230704,-833
230748,-733
230767,-464
230788,-339
230832,-330
230852,-676
230874,-685
230918,-498
230936,-514
230958,-858
231002,-1081
231022,-737
231135,-501
231221,1011
231269,1845
231274,1780
231294,1512
231340,1210
231358,208
231379,-525
231425,-1216
231442,-2020
231464,-2283
231542,-2568
231549,-2299
231595,-1730
231611,-1002
231634,-885
231681,-742
231696,-426
231718,-394
231764,-391
231782,-214
231803,-189
231849,-295
231867,-364
231888,-162
231934,48
231951,-105
231973,-332
232019,-416
232037,-102
232059,-10
232105,-73
232123,-320
232144,-364
232289,-380
232339,-147
232386,136
232394,-61
232440,-136
232457,111
232478,152
232525,72
232543,126
232565,205
232611,145
232628,-20
232649,41
232696,52
232713,-82
232734,104
232780,392
232798,209
232835,-109
232882,-173
232903,-76
232949,-398
232967,-332
232988,-63
233034,28
233053,-155
233074,-57
233120,174
233138,399
233159,421
233205,498
233223,558
233244,462
233290,442
233308,697
233421,644
233512,518
233561,618
233579,288
233625,308
233642,730
233664,684
233710,525
233726,486
233748,477
233794,362
233811,258
233833,409
233879,520
233897,201
233918,95
233965,233
233982,474
234003,207
234050,-61
234067,300
234088,491
234135,288
234152,-220
234174,46
234220,324
234259,-227
234306,-394
234322,132
234343,-41
234389,-309
234407,-353
234428,-278
234573,-317
234624,-634
234671,-393
234678,-449
234725,-524
234742,-392
234764,-352
234810,-447
234826,-704
234849,-717
234895,-737
234913,-797
234934,-715
234979,-621
234998,-808
235019,-874
235063,-726
235082,-386
235104,-561
235148,-811
235167,-553
235189,-247
235233,-248
235253,-740
235273,-574
235317,-179
235338,-156
235359,-526
235403,-659
235422,-204
235443,-204
235487,-416
235742,-479
235871,-484
235958,-562
236003,117
236025,-267
236068,-98
236089,-339
236110,-574
236154,-559
236172,-309
236194,-458
236238,-619
236258,-318
236279,-167
236323,-217
236344,-421
236365,-432
236409,-477
236428,-474
236449,-257
236493,-55
236513,-161
236535,-191
236578,-48
236599,138
236620,-9
236664,-149
236684,-220
236705,-292
236749,-375
236768,-250
236871,-127
236917,-182
236962,-266
237007,-413
237019,-520
237041,-481
237085,-426
237105,-362
237127,-312
237204,-264
237210,-185
237254,-108
237274,-244
237296,-423
237340,-502
237359,-488
237380,-628
237424,-774
237445,-599
237466,-493
237510,-576
237529,-719
237550,-522
237595,-358
237615,-616
237636,-715
237680,-578
237699,-331
237721,-467
237764,-574
237785,-286
237806,-189
237850,-319
237870,-674
237892,-622
238034,-526
238080,-530
238125,-639
238141,-666
238184,-893
238204,-1189
238226,-1068
238269,-910
238290,-788
238311,-612
238355,-227
238375,774
238396,1074
238473,1222
238558,1874
238605,1313
238651,-263
238697,-1638
238711,-2433
238732,-2567
238777,-2586
238795,-2062
238816,-1660
238862,-1398
238880,-1049
238902,-688
238947,-322
238966,-294
238987,-502
239032,-632
239051,-536
239163,-371
239251,-340
239299,-266
239304,-270
239322,-73
239368,-34
239386,-228
239408,-186
239453,-80
239470,-13
239493,-30
239539,-59
239556,-105
239577,-39
239623,54
239642,36
239663,-42
239708,-71
239727,25
239748,70
239794,106
239811,116
239833,74
239911,38
239917,99
239963,130
239980,33
240001,-114
240047,-211
240066,22
240087,182
240133,211
240150,28
240173,37
240317,152
240366,162
240414,258
240423,190
240468,39
240486,113
240507,278
240553,360
240571,594
240593,833
240639,906
240656,354
240677,262
240723,502
240741,714
240762,359
240808,33
240827,296
240848,561
240894,602
240912,221
240933,143
240979,252
240996,602
241017,593
241063,476
241082,372
241104,466
241150,566
241167,507
241188,337
241234,196
241273,403
241320,577
241335,-75
241450,-147
241540,-707
241588,15
241606,-287
241652,-161
241671,-316
241692,-579
241738,-714
241755,-614
241776,-675
241822,-798
241841,-562
241862,-274
241908,-179
241925,-531
241947,-609
241992,-564
242011,-647
242032,-747
242078,-723
242095,-511
242116,-571
242162,-675
242181,-507
242202,-361
242246,-384
242265,-643
242286,-580
242330,-408
242351,-347
242372,-442
242416,-444
242436,-336
242458,-375
242600,-421
242646,-272
242691,-767
242729,-817
242773,-233
242792,-665
242835,-597
242856,-182
242877,-242
242920,-286
242940,-3
242962,-98
243005,-429
243025,-733
243046,-592
243090,-512
243110,-728
243131,-797
243175,-754
243195,-433
243217,-196
243260,-66
243280,-411
243302,-580
243345,-529
243366,-298
243387,-391
243430,-501
243451,-389
243472,-423
243516,-582
243536,-448
243557,-200
243601,-212
243621,-770
243733,-658
243818,-628
243863,-475
243872,-412
243892,-254
243935,-275
243956,-356
243993,-163
244036,-18
244042,-216
244063,-238
244107,-90
244127,155
244148,56
244191,-74
244212,-82
244233,-4
244276,17
244297,-267
244318,-390
244361,-299
244382,214
244403,222
244446,14
244467,-231
244488,-103
244531,55
244552,-1
244573,-213
244616,-429
244637,-500
244658,-398
244701,-377
244722,-792
244743,-1007
244885,-1010
244932,-586
244977,-15
244995,-375
245038,-470
245057,-246
245078,-149
245121,-173
245142,-401
245163,-314
245206,-12
245228,323
245249,37
245326,-268
245334,-358
245377,-772
245397,-1297
245419,-1032
245462,-715
245481,-468
245504,-205
245547,277
245567,1178
245589,1393
245633,1512
245652,1649
245673,1656
245718,1635
245737,1280
245758,825
245803,252
245822,-686
245844,-963
245889,-1295
245908,-2317
246019,-2585
246107,-1250
246155,-737
246161,-653
246178,-543
246224,-507
246242,-508
246265,-435
246310,-387
246327,-348
246349,-180
246394,-43
246413,-478
246434,-674
246480,-467
246497,164
246520,-99
246565,-548
246604,-507
246650,-167
246667,-617
246689,-591
246734,-391
246751,-168
246773,-210
246818,-231
246837,-126
246858,-90
246904,-113
246922,-177
246944,-134
246989,-63
247006,-79
247029,-214
247173,-359
247222,-399
247269,-373
247278,-436
247324,-460
247343,-450
247364,-411
247410,-304
247427,13
247450,4
247495,-152
247512,-319
247533,-209
247579,-143
247598,-465
247619,-581
247664,-468
247683,-4
247704,37
247750,-25
247768,-12
247790,60
247835,69
247852,-87
247875,-142
248121,-128
248313,-105
248447,468
248497,215
248544,-81
248591,78
248599,-197
248621,-338
248667,-382
248685,-668
248707,-960
248753,-1076
248770,-563
248791,-425
248837,-602
248855,-863
248876,-551
248922,-220
248941,-644
248962,-1073
249008,-1121
249025,-436
249047,-445
249092,-759
249110,-881
249131,-558
249177,-408
249196,-882
249217,-990
249262,-854
249280,-676
249479,-849
249611,-876
249659,-889
249704,-629
249716,-577
249760,-462
249780,-309
249802,-400
249878,-490
249885,-456
249928,-692
249949,-1043
249970,-975
250014,-871
250035,-695
250056,-508
250100,-321
250119,-399
250140,-491
250184,-443
250204,-423
250226,-648
250270,-896
250289,-881
250312,-660
250356,-458
250374,-301
250396,-301
250440,-286
250460,-178
250482,-190
250624,-288
250672,-308
250717,-246
250731,-428
250775,-264
250794,-234
250817,-505
250861,-755
250880,-650
250901,-412
250946,-267
250964,-304
250986,-278
251030,-177
251050,-93
251072,-126
251116,-119
251154,-132
251159,-264
251203,-328
251221,51
251242,158
251286,53
251305,13
251327,298
251371,541
251390,328
251412,160
251456,123
251476,137
251497,83
251541,54
251560,181
251582,238
251626,262
251646,122
251758,-78
251844,-542
251891,-300
251896,-190
251918,-225
251962,-231
251981,-146
252002,-110
252047,-115
252066,-217
252087,-192
252132,-50
252152,84
252173,-172
252217,-471
252236,-329
252258,-157
252302,-281
252321,-594
252344,-235
252388,205
252407,9
252444,-214
252489,-100
252495,81
252513,-308
252557,-612
252576,-24
252599,274
252643,271
252662,570
252683,1109
252729,1492
252748,1523
252769,1664
252914,1915
252964,-8
253012,-906
253019,-1587
253066,-2189
253083,-2170
253104,-1483
253151,-1004
253167,-1089
253188,-824
253235,-194
253252,357
253273,30
253320,-229
253337,-122
253359,-122
253405,-214
253423,-232
253444,-155
253491,-79
253508,62
253529,28
253576,-53
253592,226
253615,438
253662,379
253678,-85
253699,68
253779,367
253785,210
253833,260
253847,525
253868,564
253915,636
253933,707
254046,514
254140,523
254190,494
254203,529
254250,506
254266,349
254287,325
254335,421
254351,652
254372,486
254420,168
254437,25
254458,277
254506,399
254522,44
254543,75
254590,397
254606,907
254628,849
254676,776
254691,891
254713,877
254761,727
254776,459
254798,577
254846,792
254861,854
254884,726
254932,756
254946,1180
254969,1116
255017,852
255031,723
255053,838
255200,808
255252,413
255334,631
255384,304
255390,511
255438,807
255450,913
255472,744
255520,647
255536,760
255557,666
255605,466
255621,423
255642,530
255690,442
255706,-9
255727,124
255775,420
255791,259
255812,-141
255860,-320
255876,44
255897,125
255945,58
255961,-5
255982,5
256029,-55
256046,-146
256068,-89
256115,-73
256131,-376
256152,-511
256200,-505
256217,-245
256332,-197
256425,-350
256474,-437
256487,-518
256534,-596
256551,-506
256572,-323
256619,-240
256636,-505
256674,-451
256719,-119
256742,-66
256788,-532
256805,-492
256826,-157
256872,-84
256889,-582
256912,-488
256958,-102
256974,95
256997,-241
257042,-408
257060,145
257081,264
257127,82
257145,-148
257167,-6
257212,75
257231,-180
257252,-267
257297,-244
257316,-160
257337,-169
257481,-186
257530,-514
257577,-22
257587,-235
257633,-297
257651,493
257673,712
257718,472
257735,-178
257757,-49
257802,169
257821,-67
257842,-255
257887,-189
257906,230
257928,207
257973,68
257992,-125
258030,-202
258075,-259
258096,370
258142,421
258161,146
258182,160
258227,243
258245,91
258268,-21
258313,-47
258330,-137
258351,-127
258397,62
258416,393
258437,274
258482,179
258501,412
258615,313
258704,122
258751,168
258771,-722
258816,-615
258835,264
258856,287
258901,119
258920,131
258941,161
258986,-20
259005,-561
259026,-567
259071,-466
259090,-697
259111,-915
259157,-868
259175,-203
259197,-185
259242,-446
259261,-529
259282,-276
259328,-254
259345,-857
259383,-849
259428,-586
259434,-395
259452,-498
259497,-492
259516,-298
259537,-358
259583,-514
259601,-782
259623,-782
259766,-628
259815,1159
259863,1732
259872,1884
259920,1958
259935,1313
259958,786
260006,407
260022,-270
260043,-931
260090,-1709
260107,-2439
260206,-2372
260256,-1923
260305,-532
260353,-296
260358,-419
260380,-429
260427,-419
260443,-547
260464,-569
260512,-479
260527,-257
260549,-215
260596,-118
260613,74
260634,24
260682,28
260698,298
260719,164
260898,-165
260995,112
261046,-33
261051,-15
261099,-3
261116,348
261136,205
261184,-144
261199,-99
261222,192
261270,153
261286,-351
261307,-154
261355,171
261370,5
261392,-64
261439,232
261455,667
261476,346
261524,28
261540,343
261563,549
261611,443
261627,-70
261648,-49
261696,146
261711,306
261733,192
261781,143
261796,635
261818,861
261866,825
261881,517
261903,612
262049,792
262102,595
262151,648
262156,620
262205,605
262217,980
262238,1174
262286,1110
262325,613
262373,841
262386,817
262407,698
262455,755
262471,905
262492,704
262540,548
262555,873
262577,876
262625,573
262640,200
262662,411
262709,587
262725,294
262748,146
262796,125
262811,81
262833,-3
262880,-65
262896,-330
262917,-540
262964,-622
262982,-217
263003,-69
263050,-158
263066,-524
263183,-411
263276,-254
263326,-419
263337,-628
263384,-593
263400,-320
263422,-254
263469,-309
263485,-420
263508,-398
263556,-444
263571,-551
263593,-401
263641,-242
263679,-394
263728,-105
263740,6
263761,-345
263808,-546
263825,-179
263846,-169
263892,-331
263911,7
263932,295
263978,217
263995,-259
264016,2
264061,330
264080,-241
264102,-665
264147,-622
264166,130
264187,75
264331,-225
264379,-220
264426,-403
264437,-430
264482,-154
264501,20
264522,-209
264567,-356
264586,52
264607,220
264652,111
264671,-259
264692,-131
264738,97
264756,59
264778,-45
264823,51
264841,441
264863,370
264908,189
264927,121
264948,136
264993,35
265032,-220
265077,-173
265095,-3
265118,97
265163,134
265180,7
265201,26
265246,53
265265,-410
265286,-658
265332,-590
265350,-52
265463,-76
265552,462
265600,194
265622,89
265667,562
265685,314
265706,-104
265751,-144
265770,458
265792,379
265837,50
265856,-264
265877,-164
265923,-68
265940,-25
265961,-31
266007,-80
266025,-237
266047,-277
266092,-239
266110,-28
266133,-14
266178,-105
266195,-157
266217,-48
266262,-43
266281,-586
266302,-756
266348,-643
266365,-180
266403,-225
266449,-349
266454,-16
266473,339
266617,519
266665,115
266712,-438
266723,-131
266768,-25
266787,218
266808,606
266853,1140
266872,2060
266893,2288
266939,2365
266957,2153
266978,1980
267025,1744
267041,758
267062,66
267109,-535
267126,-1301
267148,-1650
267194,-1971
267212,-2211
267233,-2153
267281,-2044
267297,-1540
267318,-1125
267366,-728
267382,-332
267403,-246
267451,-120
267467,154
267488,153
267536,44
267551,50
267574,268
267622,402
267637,56
267750,-1
267877,-255
267928,-178
267977,472
267990,26
268038,-7
268054,361
268075,452
268123,417
268139,192
268160,85
268208,57
268225,264
268246,264
268294,53
268310,-299
268331,-90
268379,187
268395,-20
268416,-189
268464,4
268479,786
268501,720
268548,436
268564,422
268587,607
268635,566
268651,-12
268672,-102
268720,-6
268735,228
268756,241
268903,244
268955,344
269004,521
269009,234
269057,246
269069,739
269092,716
269140,442
269156,205
269177,403
269225,555
269241,688
269279,903
269327,1106
269346,663
269395,728
269410,880
269432,597
269480,277
269494,373
269515,572
269564,639
269579,459
269601,362
269649,313
269665,356
269686,294
269734,91
269750,-63
269771,245
269819,534
269835,321
269856,146
269904,152
269920,-8
270035,-295
270129,-845
270180,-200
270191,-598
270239,-355
270255,-437
270276,-842
270324,-1008
270339,-385
270362,-311
270410,-612
270424,-842
270447,-515
270495,-350
270509,-868
270530,-967
270579,-828
270594,-658
270632,-657
270681,-536
270700,-558
270749,-615
270764,-461
270786,-585
270833,-765
270849,-612
270870,-595
270917,-820
270934,-796
271033,-363
271180,-824
271272,-525
271321,-220
271367,-301
271373,-410
271419,-463
271434,-662
271456,-606
271502,-380
271519,-113
271540,-357
271586,-684
271605,-667
271627,-394
271673,-268
271690,-467
271711,-405
271757,-196
271775,-129
271796,-294
271842,-329
271859,-34
271882,-115
271928,-378
271945,-414
271967,-145
272013,-35
272051,-384
272098,-173
272113,-356
272135,-562
272181,-447
272200,102
272313,-85
272403,58
272451,-118
272470,-249
272516,44
272533,214
272555,-105
272601,-260
272618,166
272639,156
272685,-68
272704,-100
272726,10
272771,-101
272789,-388
272810,-179
272856,-50
272873,-672
272895,-789
272941,-479
272958,-66
272980,-380
273026,-613
273043,-130
273065,51
273111,-31
273130,-248
273151,-246
273197,-307
273215,-417
273236,-304
273282,-206
273300,-291
273321,-252
273466,-116
273549,-418
273598,-353
273644,-539
273653,-715
273699,-603
273718,-481
273739,-548
273785,-472
273802,307
273825,652
273870,840
273887,1396
273909,1758
273954,1896
273973,1629
273995,1634
274041,1727
274057,1362
274079,873
274126,369
274143,-554
274164,-1066
274211,-1625
274229,-2582
274250,-2702
274297,-2497
274313,-1749
274335,-1495
274383,-1203
274399,-267
274420,35
274468,17
274483,-396
274597,-452
274691,-463
274742,30
274755,34
274803,84
274818,-95
274839,-183
274920,-86
274927,165
274975,-71
274987,-22
275008,173
275056,142
275072,-469
275093,-541
275141,-322
275157,61
275178,-93
275226,-292
275242,-36
275263,306
275311,446
275327,-129
275348,-385
275396,-294
275412,304
275433,219
275481,-94
275497,-80
275519,301
275567,439
275583,-223
275604,-284
275751,24
275803,600
275852,92
275858,332
275906,478
275918,96
275939,-68
275987,11
276003,295
276024,185
276072,-9
276087,5
276110,153
276158,228
276173,234
276195,271
276242,318
276281,541
276330,734
276342,362
276363,402
276411,650
276427,740
276448,517
276496,434
276512,658
276533,625
276581,476
276597,260
276618,192
276666,145
276682,338
276705,434
276752,380
276768,202
276885,281
276978,-50
277029,-278
277038,-558
277086,-351
277101,-252
277123,-553
277171,-794
277186,-511
277208,-350
277256,-427
277271,-816
277293,-774
277341,-619
277357,-559
277378,-683
277426,-745
277442,-467
277463,-349
277512,-365
277527,-471
277549,-455
277597,-439
277636,-615
277685,-747
277696,-460
277719,-334
277767,-441
277781,-834
277802,-553
277851,-22
277866,30
277887,-460
278033,-682
278082,-559
278129,-912
278138,-569
278183,-438
278202,-887
278223,-950
278268,-755
278287,-389
278309,-401
278354,-486
278372,-736
278394,-711
278439,-519
278456,-238
278479,-293
278524,-311
278542,1
278564,33
278609,-96
278627,-247
278648,-178
278693,-201
278712,-703
278733,-834
278779,-717
278797,-454
278819,-550
278865,-628
278882,-366
278920,-258
278965,-301
278971,-374
278989,-313
279034,-289
279053,-268
279167,-174
279255,-121
279302,-119
279323,-92
279368,-76
279387,28
279408,-112
279453,-278
279472,-60
279493,86
279538,10
279557,-251
279578,-182
279623,-107
279642,-202
279663,-151
279708,-27
279727,-55
279749,-204
279794,-284
279812,-202
279834,-156
279879,-173
279898,-444
279919,-472
279964,-235
279983,276
280004,-33
280050,-550
280068,-540
280090,-141
280135,-66
280152,-715
280174,-747
280351,-551
280442,-885
280489,-445
280507,-452
280552,-347
280570,-554
280591,-546
280636,-498
280655,-905
280677,-1063
280722,-849
280741,-153
280762,-274
280807,-505
280826,61
280847,628
280891,895
280910,807
280932,1012
280977,1365
280996,1488
281017,1299
281063,1171
281080,738
281102,141
281148,-590
281166,-1628
281188,-1979
281234,-2371
281251,-2848
281273,-2645
281320,-2234
281336,-1585
281357,-1319
281502,-926
281553,-129
281601,-557
281608,-555
281655,-293
281694,-237
281741,-283
281755,-251
281855,-333
281905,-248
281953,-298
282001,-158
282007,-35
282028,-44
282075,-58
282092,10
282113,-40
282160,-191
282177,-231
282199,-61
282246,-15
282261,-391
282283,-369
282330,-122
282347,88
282368,-102
282415,-190
282432,326
282454,491
282501,363
282517,-107
282631,-22
282724,-302
282773,-94
282787,-57
282834,137
282851,274
282873,317
282920,274
282937,-61
282958,-67
283005,55
283021,-139
283044,-363
283091,-316
283106,273
283128,289
283326,223
283421,385
283471,241
283519,378
283525,368
283545,235
283592,224
283608,491
283629,299
283775,-9
283826,205
283874,382
283880,-433
283927,-66
283943,316
283964,-271
284011,-767
284029,-538
284050,-497
284097,-754
284113,-1029
284134,-858
284182,-723
284199,-793
284220,-836
284268,-815
284283,-658
284305,-685
284352,-896
284368,-1125
284391,-811
284439,-451
284454,-656
284476,-910
284523,-880
284539,-675
284560,-974
284608,-1286
284624,-993
284645,-788
284726,-890
284732,-848
284780,-487
284793,-524
284907,-700
285001,-1228
285049,-1316
285065,-920
285110,-554
285127,-654
285148,-798
285193,-658
285212,-355
285233,-688
285278,-1081
285297,-841
285318,-498
285363,-455
285382,-850
285405,-666
285450,-234
285467,-42
285490,-478
285535,-864
285554,-619
285575,-385
285620,-451
285639,-1023
285660,-1033
285705,-862
285723,-734
285744,-803
285789,-794
285808,-460
285829,-308
285874,-237
285893,-262
285914,-335
286058,-449
286139,-897
286186,69
286233,-311
286248,173
286293,-284
286312,-1038
286334,-684
286379,-288
286396,-516
286418,-635
286463,-458
286482,-150
286503,-237
286548,-295
286567,-242
286589,-332
286634,-429
286653,-330
286674,-343
286719,-486
286737,-558
286758,-378
286803,-257
286822,-384
286844,-424
286889,-372
286908,-303
286929,-367
286974,-473
286992,-653
287013,-615
287058,-507
287077,-459
287191,-589
287280,-57
287328,-424
287349,-470
287394,-735
287411,-850
287433,-769
287511,-786
287517,-723
287563,-535
287580,-689
287602,-739
287647,-495
287666,-186
287688,-643
287733,-1150
287750,-899
287772,-582
287817,-647
287836,-1013
287858,-688
287903,-200
287922,311
287943,565
287988,1042
288007,1884
288028,1889
288075,1768
288092,1688
288113,1441
288160,825
288176,-816
288197,-1347
288343,-1710
288394,-1684
288443,-1170
288449,-553
288496,-462
288512,-568
288533,-609
288581,-593
288596,-432
288618,-383
288665,-379
288683,-228
288704,-118
288784,-153
288790,-587
288838,-477
288852,-351
288873,-392
288921,-370
288936,-86
288958,33
289005,65
289021,-146
289042,-303
289090,-379
289107,-258
289128,-240
289176,-327
289192,-350
289213,-144
289261,84
289276,-83
289297,-380
289345,-518
289362,-87
289475,117
289568,41
289618,-314
289633,41
289681,138
289695,-16
289717,-80
289764,-94
289781,-6
289802,53
289850,10
289865,-328
289887,-305
289934,-57
289951,359
289973,280
290020,146
290036,238
290057,368
290105,381
290143,154
290192,396
290206,579
290227,397
290275,228
290291,360
290312,373
290360,210
290375,-60
290397,11
290444,122
290460,297
290483,376
290629,394
290681,-121
290730,-9
290735,-163
290783,-125
290797,90
290818,-6
290865,-125
290881,33
290902,36
290950,-202
290965,-630
290987,-402
291034,-88
291052,-355
291073,-731
291121,-787
291136,-231
291158,-347
291205,-732
291221,-783
291242,-507
291290,-539
291306,-1120
291327,-985
291375,-673
291392,-899
291413,-1178
291771,-1094
291958,-974
292054,-675
292102,-377
292149,-767
292158,-714
292204,-605
292221,-659
292242,-727
292287,-742
292306,-734
292328,-731
292373,-709
292392,-592
292413,-485
292458,-363
292477,-274
292498,-350
292544,-400
292561,-344
292661,-424
292709,-455
292756,-609
292900,-324
292950,-263
292996,-164
293002,-358
293047,-537
293063,-409
293084,-154
293129,-20
293148,-188
293169,-216
293215,-56
293234,395
293255,310
293300,-7
293319,-407
293340,-260
293386,-71
293424,-90
293470,108
293487,480
293509,445
293554,355
293573,324
293594,278
293640,105
293657,-353
293678,-400
293724,-291
293743,-70
293764,-90
293809,-137
293828,-88
293849,-51
293895,-70
293912,-244
293933,-338
294077,-357
294126,235
294173,13
294184,-356
294229,-504
294248,-537
294270,-563
294315,-579
294333,-375
294354,-244
294400,-232
294417,-416
294440,-415
294486,-313
294503,-136
294525,-132
294570,-176
294587,-243
294609,-235
294655,-236
294673,-463
294711,-643
294757,-711
294780,-141
294825,-20
294842,285
294863,646
294909,1046
294928,1432
294949,1489
294995,1651
295013,2212
295034,2238
295082,1960
295098,1070
295211,729
295304,-1796
295354,-2019
295368,-1230
295416,-987
295431,-581
295453,-288
295500,11
295517,-31
295539,-245
295586,-224
295602,345
295623,308
295671,33
295687,-22
295709,227
295757,290
295773,-47
295794,-9
295842,161
295858,205
295879,106
295928,73
295943,93
295964,111
296012,176
296028,268
296049,196
296131,150
296137,342
296185,228
296196,88
296219,168
296365,237
296417,238
296466,253
296472,278
296520,160
296532,91
296554,338
296601,582
296617,289
296638,59
296686,165
296702,651
296723,433
296771,76
296787,206
296808,471
296856,506
296872,312
296893,439
296941,588
296958,424
296979,367
297027,537
297043,822
297064,574
297112,228
297127,357
297149,651
297197,690
297212,333
297234,428
297281,635
297297,502
297320,371
297368,437
297383,492
297500,289
297593,637
297677,896
297727,736
297736,238
297784,80
297800,245
297821,234
297869,112
297885,28
297906,110
297954,217
297971,299
297992,220
298040,75
298056,-146
298077,-189
298125,-308
298141,-609
298162,-512
298210,-263
298225,-187
298247,-478
298295,-701
298310,-520
298331,-481
298379,-697
298395,-1141
298416,-964
298464,-620
298481,-164
298503,-125
298649,-119
298701,-469
298749,-728
298755,-664
298802,-607
298816,-493
298838,-504
298885,-503
298901,-169
298922,-33
299002,-113
299008,-529
299054,-444
299071,-515
299092,-592
299138,-610
299155,-581
299176,-455
299222,-230
299241,-204
299262,-489
299307,-620
299326,-277
299347,-356
299393,-634
299411,-389
299433,67
299477,200
299496,-122
299518,63
299563,316
299581,-171
299603,-539
299648,-570
299667,-282
299781,-341
299869,85
299916,-114
299937,-338
299982,-270
300001,-394
300022,-420
300067,-296
300086,76
300107,73
300152,-53
300171,-206
300192,-148
300237,-59
300255,139
300277,134
300355,30
300361,123
300406,241
300425,-7
300446,-39
300491,94
300510,128
300531,-25
300576,-49
300594,32
300616,-159
300660,-346
300679,-118
300701,13
300745,-30
300764,73
300787,328
300930,429
300978,143
301024,-318
301037,-171
301081,-254
301100,-263
301122,-229
301166,-325
301185,-552
301207,-401
301251,-184
301270,-325
301292,-568
301337,-661
301356,-398
301377,-313
301422,-357
301441,-561
301462,-523
301508,-368
301525,-22
301548,-12
301593,-77
301612,-274
301649,-377
301694,-443
301715,-452
301760,-479
301779,-34
301802,343
301847,600
301866,954
301887,1336
301932,1703
301950,1670
302063,1632
302155,1154
302204,-856
302221,-2769
302268,-2699
302284,-2051
302307,-1672
302354,-1302
302370,-655
302391,-366
302438,-139
302454,-174
302477,-388
302524,-555
302540,-418
302561,-225
302609,-69
302624,168
302646,291
302693,363
302711,241
302732,169
302780,190
302796,208
302817,83
302865,-19
302880,66
302902,111
302950,120
302965,195
303003,140
303051,-15
303071,459
303217,492
303270,-307
303318,-36
303324,435
303371,222
303385,78
303484,312
303534,156
303584,496
303632,323
303638,361
303658,391
303705,335
303721,336
303743,376
303790,289
303806,154
303827,354
303875,533
303891,185
303912,27
303960,147
303976,470
303997,345
304044,193
304061,385
304083,579
304130,640
304146,388
304167,286
304215,339
304231,730
304347,814
304440,934
304490,689
304501,537
304549,750
304566,791
304587,540
304668,444
304674,980
304722,713
304735,442
304756,696
304804,811
304819,-3
304841,-265
304888,-72
304905,442
304927,193
304974,-156
304990,-62
305011,128
305059,60
305076,-462
305097,-459
305144,-296
305160,-194
305181,-139
305229,168
305245,815
305266,580
305314,81
305331,-200
305352,2
305498,28
305550,326
305599,242
305604,-61
305652,-82
305666,-167
305687,-278
305734,-266
305750,85
305773,93
305820,-53
305836,-302
305857,-328
305904,-335
305922,-175
305943,-110
306022,-184
306029,218
306074,562
306090,98
306111,-246
306157,-196
306176,278
306197,145
306243,-62
306260,146
306281,255
306327,193
306346,133
306367,198
306412,167
306431,-38
306452,-100
306497,-192
306516,-140
306632,175
306720,143
306766,112
306786,-32
306831,-259
306849,-35
306871,202
306915,237
306934,92
306957,137
307002,190
307021,242
307042,322
307087,329
307106,-111
307127,-154
307172,86
307191,300
307212,-9
307257,-260
307275,38
307297,215
307341,218
307360,298
307398,445
307443,442
307449,49
307467,52
307511,196
307530,130
307552,-45
307596,-29
307615,437
307636,438
307780,233
307828,-19
307874,340
307887,10
307931,-119
307952,168
307973,200
308018,-51
308037,-712
308058,-616
308103,-253
308121,138
308142,-88
308187,-306
308206,-40
308227,171
308272,141
308291,-363
308313,-465
308358,-355
308377,-51
308398,-81
308443,-204
308461,-278
308484,-163
308529,-37
308546,18
308567,-56
308612,-154
308631,-174
308652,-124
308730,-133
308737,-294
308782,-179
308800,-39
308914,117
309001,891
309048,1304
309054,1493
309072,1698
309118,1405
309136,2
309157,-205
309203,-239
309222,-1470
309243,-2286
309289,-2546
309307,-1700
309328,-1380
309374,-1291
309392,-983
309413,-552
309459,-69
309476,219
309498,-60
309544,-364
309561,-431
309583,-393
309629,-432
309646,-316
309669,-159
309715,-149
309732,-333
309753,-153
309800,139
309817,72
309838,-219
309884,-334
309902,50
309923,140
310068,31
310117,280
310198,-12
310247,192
310257,177
310304,215
310321,96
310342,30
310389,3
310406,-38
310427,-49
310473,-48
310490,49
310512,237
310558,470
310575,398
310597,176
310643,193
310660,747
310682,646
310728,295
310745,175
310767,405
310813,473
310831,341
310852,461
310899,564
310916,238
310937,104
310984,149
311001,129
311022,-27
311069,-45
311086,419
311199,525
311290,818
311338,322
311357,487
311404,611
311420,863
311442,896
311488,949
311506,1206
311527,1173
311574,971
311613,732
311661,715
311675,331
311696,369
311743,507
311760,198
311782,-42
311828,15
311844,598
311867,556
311914,300
311930,-24
311951,-10
311998,13
312015,24
312036,-22
312083,-120
312100,-244
312121,-177
312168,-129
312185,-286
312207,-404
312352,-465
312403,-212
312451,-221
312456,-396
312503,-556
312520,-680
312542,-508
312588,-301
312606,-355
312627,-490
312674,-420
312691,39
312712,-38
312759,-305
312776,-491
312797,-371
312844,-318
312861,-450
312883,-533
312962,-636
312968,-698
313013,-602
313030,-545
313052,-483
313096,-378
313115,-316
313136,-336
313181,-319
313200,-343
313221,-417
313265,-451
313286,-462
313307,-492
313351,-450
313370,-38
313484,81
313570,-177
313616,-503
313621,-827
313641,-710
313685,-414
313706,-213
313727,-478
313771,-693
313790,-366
313813,-203
313857,-291
313876,-326
313897,-4
313941,213
313960,-147
313983,-174
314027,69
314046,45
314067,-430
314111,-769
314131,-385
314153,-122
314197,-98
314235,-319
314315,-206
314361,412
314408,46
314452,155
314468,-131
314489,-197
314632,-255
314680,95
314725,255
314739,507
314783,170
314802,-221
314824,-30
314868,139
314888,-101
314910,-277
314954,-361
314973,-372
314994,-308
315039,-250
315058,-374
315079,-366
315124,-182
315142,-37
315164,-297
315208,-495
315227,-301
315250,-358
315295,-602
315312,-450
315335,-95
315380,-24
315399,-430
315420,-239
315465,142
315484,125
315505,-159
315550,-254
315569,-167
315590,-278
315766,-395
315855,488
315901,1195
315922,1409
315967,1672
315986,2288
316008,1995
316053,1452
316071,842
316092,517
316138,-172
316157,-1847
316178,-2223
316224,-2269
316241,-1948
316263,-1660
316309,-1324
316326,-762
316348,-501
316394,-242
316411,-66
316433,-197
316479,-346
316496,-418
316518,-358
316564,-282
316581,-318
316603,-395
316649,-352
316666,5
316687,19
316733,-131
316752,-310
316773,-220
316918,-89
316968,246
317015,250
317023,-103
317069,-50
317087,162
317125,199
317171,194
317192,-34
317238,154
317256,525
317277,266
317323,-139
317341,-185
317362,64
317408,130
317427,-165
317448,-130
317494,31
317511,132
317533,136
317579,263
317596,405
317618,194
317664,19
317681,370
317703,457
317749,143
317766,-515
317787,-206
317833,288
317852,375
317874,113
317920,43
317937,357
318052,445
318142,-182
318191,449
318207,958
318253,1320
318271,1148
318292,930
318339,780
318356,502
318378,481
318425,601
318442,616
318463,413
318543,344
318549,898
318596,681
318610,185
318631,249
318678,421
318695,372
318717,141
318764,-34
318781,129
318802,263
318849,233
318866,-68
318887,-52
318934,115
318951,312
318973,230
319019,92
319035,-198
319058,-332
319203,-423
319254,-214
319302,-225
319307,-334
319354,-301
319371,-609
319393,-684
319440,-529
319457,-401
319478,-623
319525,-701
319541,-336
319562,-436
319609,-715
319626,-518
319648,-199
319695,-216
319712,-851
319733,-772
319780,-423
319796,-315
319834,-680
319881,-951
319902,-278
319949,-213
319965,-545
319986,-533
320032,-370
320051,-121
320072,-106
320117,-133
320136,-397
320157,-534
320203,-545
320221,-519
320336,-650
320424,-274
320470,-430
320492,-553
320536,-509
320555,-567
320576,-469
320621,-338
320640,-319
320661,-254
320706,-65
320725,-134
320746,-494
320791,-673
320810,-18
320831,178
320876,-8
320896,-358
320917,-57
320962,314
320981,214
321002,-87
321047,-261
321066,-292
321087,-305
321132,-323
321171,-337
321176,-431
321220,-511
321236,-175
321257,19
321302,-42
321321,-495
321342,-367
321485,-112
321534,69
321580,-334
321593,17
321638,65
321656,-199
321678,-71
321722,103
321741,-231
321763,-373
321808,-203
321826,-28
321848,-436
321892,-746
321911,-66
321933,229
321978,28
321996,-573
322018,-368
322063,-105
322082,-395
322103,-595
322148,-578
322166,-423
322189,-461
322234,-420
322251,-171
322273,-256
322318,-445
322337,-403
322358,-253
322403,-243
322442,-296
322447,-113
322492,74
322507,-53
322621,-175
322709,-1028
322756,-175
322761,256
322779,716
322824,892
322843,753
322864,1047
322909,1489
322928,1600
322949,1425
322995,1443
323012,1329
323033,704
323079,-82
323098,-1021
323119,-1431
323165,-2037
323183,-2784
323204,-2516
323251,-2090
323268,-1682
323290,-1489
323337,-1162
323353,-676
323374,-563
323421,-365
323438,-45
323459,-200
323506,-388
323524,-96
323545,90
323592,-9
323609,-449
323630,-320
323775,-4
323859,-97
323908,80
323956,83
323963,355
324010,469
324026,-8
324049,-303
324096,-305
324111,96
324133,44
324179,-68
324197,302
324218,563
324265,599
324282,311
324304,164
324351,-34
324366,-317
324388,-216
324435,-99
324452,-158
324473,-57
324520,192
324536,180
324559,-81
324606,-132
324622,380
324643,433
324690,292
324707,322
324729,533
324776,640
324792,416
324908,321
325001,246
325050,429
325142,432
325191,365
325240,706
325288,549
325293,510
325315,463
325362,384
325401,222
325448,144
325462,441
325484,568
325531,567
325546,502
325567,594
325615,704
325632,770
325653,632
325700,366
325718,-34
325739,101
325786,287
325801,-45
325823,-287
325870,-197
325887,265
325908,41
326054,-307
326105,-459
326153,-234
326159,-646
326206,-726
326223,-536
326244,-659
326291,-885
326307,-740
326329,-511
326376,-546
326393,-995
326415,-864
326462,-579
326478,-522
326499,-560
326546,-389
326562,-96
326583,-257
326631,-392
326648,-393
326669,-630
326750,-965
326756,-398
326804,-211
326816,-467
326838,-431
326885,-202
326902,63
326924,-122
326970,-381
326987,-429
327008,-238
327053,-192
327072,-626
327187,-663
327275,-506
327322,-295
327343,16
327388,0
327407,-499
327428,-660
327473,-630
327492,-159
327513,-38
327558,-168
327577,-421
327598,-208
327644,34
327662,-172
327684,-371
327729,-372
327748,-112
327769,-67
327814,-66
327833,-92
327854,-121
327899,-105
327916,62
327939,81
327984,-2
328003,-238
328024,-232
328102,-146
328108,-433
328153,-581
328170,-237
328193,-57
328337,-88
328385,-9
328431,169
328444,-17
328489,178
328506,208
328529,-61
328573,-257
328592,-211
328614,-198
328658,-183
328676,13
328699,44
328743,-16
328762,56
328783,217
328828,274
328847,-17
328868,-131
328913,-161
328932,-197
328953,-165
328998,-132
329017,-450
329039,-681
329084,-718
329103,-538
329124,-659
329170,-756
329187,-122
329208,144
329254,-67
329272,-777
329294,-550
329339,-152
329358,-331
329494,-629
329584,-112
329631,-255
329677,-336
329691,266
329712,585
329757,780
329776,1199
329798,1560
329843,1817
329860,1539
329881,1366
329927,1408
329946,1178
329968,533
330014,-160
330031,-876
330053,-1313
330099,-1970
330116,-2537
330138,-2124
330184,-1714
330200,-1733
330223,-1616
330270,-1155
330286,-290
330308,-282
330355,-360
330372,-194
330393,-81
330440,-41
330456,-116
330477,-227
330524,-370
330628,-380
330678,-19
330726,222
330731,-3
330778,34
330936,226
331030,-160
331080,-10
331128,395
331145,150
331192,107
331209,342
331231,348
331278,354
331294,489
331315,383
331363,182
331379,177
331400,269
331448,214
331463,-67
331486,-54
331533,43
331549,278
331570,415
331618,524
331635,495
331753,417
331846,258
331896,482
331905,397
331953,437
331968,579
331990,467
332037,302
332053,502
332074,747
332122,799
332139,434
332160,416
332208,557
332224,578
332245,388
332293,264
332309,464
332330,600
332378,655
332393,638
332431,635
332479,654
332500,679
332548,480
332563,97
332585,180
332632,369
332648,279
332669,49
332717,-46
332732,174
332755,202
332901,124
332953,-437
333001,-359
333007,-329
333054,-366
333068,-360
333090,-256
333138,-121
333153,-129
333175,-348
333222,-548
333238,-374
333261,-231
333308,-351
333324,-876
333345,-746
333393,-448
333409,-581
333430,-826
333478,-770
333494,-256
333515,-342
333562,-565
333578,-532
333601,-432
333649,-489
333665,-637
333686,-522
333734,-382
334050,-407
334231,-388
334322,-260
334369,-266
334415,-91
334431,-159
334476,-158
334494,-375
334516,-508
334560,-459
334579,-178
334601,-278
334646,-397
334664,-29
334686,125
334730,-18
334749,-387
334772,-208
334817,-26
334834,-403
334857,-575
334902,-417
334921,30
334942,-178
334987,-478
335006,-302
335027,-57
335072,-48
335176,-227
335224,-124
335269,-55
335278,-240
335323,-170
335341,215
335363,235
335407,212
335426,429
335448,480
335492,315
335511,-164
335549,-143
335594,-3
335599,-235
335619,-599
335664,-740
335683,-109
335704,50
335749,-155
335766,-438
335789,-147
335833,104
335852,-38
335951,-94
335998,-383
336045,-180
336091,-425
336103,-122
336124,-174
336170,-362
336188,-214
336307,-75
336395,-324
336443,-408
336459,-186
336504,-163
336523,-274
336544,-535
336589,-690
336608,203
336629,802
336674,944
336693,611
336714,1068
336759,1863
336778,2326
336800,1867
336846,1540
336863,1609
336885,1309
336931,656
336948,-338
336986,-592
337033,-1107
337054,-2703
337100,-2320
337116,-1914
337139,-2052
337186,-1868
337202,-405
337224,46
337271,51
337288,-47
337309,116
337455,172
337506,-89
337554,10
337559,217
337607,192
337622,249
337644,298
337691,227
337708,1
337729,-2
337777,-25
337792,-201
337814,-82
337861,161
337878,291
337899,293
337947,541
337963,974
337984,596
338032,82
338047,148
338069,405
338117,302
338132,-230
338155,14
338203,442
338218,413
338240,144
338288,126
338326,544
338375,369
338387,282
338408,378
338456,476
338472,611
338587,475
338681,310
338731,470
338743,686
338791,645
338807,594
338828,496
338876,424
338892,540
338913,523
338962,403
338977,466
338999,709
339047,910
339061,1094
339084,1168
339133,1151
339147,732
339168,567
339217,504
339232,280
339254,115
339302,63
339318,273
339339,412
339387,549
339401,614
339424,445
339473,321
339487,615
339508,713
339556,618
339572,507
339593,620
339740,611
339793,171
339842,441
339881,425
339930,169
339980,-162
339991,-163
340012,-348
340060,-587
340076,-428
340097,-199
340146,-217
340161,-481
340183,-307
340231,-129
340246,-681
340268,-959
340316,-848
340330,-375
340353,-500
340401,-714
340415,-636
340437,-377
340485,-66
340501,406
340522,344
340571,126
340586,59
340608,207
340656,159
340670,-477
340693,-567
340742,-384
340756,-51
340873,-71
340965,-51
341014,-512
341027,-608
341073,-444
341091,70
341112,479
341158,895
341176,973
341197,695
341277,580
341283,645
341330,-191
341344,-1452
341366,-918
341412,-2
341429,253
341451,-327
341498,-544
341515,404
341536,591
341583,227
341600,-839
341622,-996
341669,-919
341686,-367
341707,-62
341754,105
341770,92
341791,173
341838,354
341855,397
341877,194
342022,-1
342073,410
342121,465
342127,1524
342174,1459
342190,-150
342211,-354
342259,-60
342276,-879
342297,-1917
342345,-2229
342361,-448
342382,1
342430,-398
342446,-1461
342467,-1452
342516,-1487
342531,-2931
342568,-3958
342618,-4569
342636,-3955
342686,-4222
342700,-4770
342722,-4149
342771,-3221
342785,-3241
342807,-4881
342856,-5480
342871,-1851
342892,-495
342942,-1277
342956,-249
342977,2474
343026,3434
343041,3031
343154,9249
343252,-16185
343307,-4372
343313,-1155
343365,-4417
343374,-6290
343396,1407
343448,8485
343461,3959
343482,-4080
343534,-9191
343545,-5828
343566,-1821
343619,-1970
343630,-12004
343652,-10967
343705,-2952
