timestamp,ECG_Raw
504399,828
504523,-1144
504647,-2886
504714,-866
504778,-532
504842,-185
504849,-250
504912,-266
504933,-162
504996,-339
505017,-367
505080,145
505101,458
505164,274
505272,544
505395,-628
505459,-175
505521,-263
505582,89
505600,-579
505660,-375
505665,-411
505685,-680
505745,-815
505750,-885
505770,-1070
505830,-1158
505836,-752
505856,-709
505915,-919
505921,-954
505941,-646
506001,-538
506007,-1121
506026,-1269
506086,-1225
506092,-1500
506110,-1791
506211,-1880
506273,-1775
506279,-1690
506438,-1681
506502,-1287
506563,-1209
506624,-1152
506686,-1193
506694,-1570
506754,-1911
506760,-1735
506779,-1658
506839,-1966
506845,-2581
506865,-2322
506925,-2014
506931,-2338
506949,-2460
507009,-2236
507015,-2006
507035,-2362
507094,-2628
507100,-2233
507120,-2069
507180,-2223
507186,-2682
507204,-2624
507264,-2428
507270,-2186
507290,-2214
507350,-2307
507355,-2506
507374,-2466
507434,-2280
507440,-1927
507459,-2028
507617,-2226
507731,-2260
507848,-2687
507911,-2319
507972,-1827
508033,-2496
508041,-1854
508101,-1839
508106,-2180
508126,-2186
508186,-2066
508192,-2074
508210,-2246
508269,-2337
508275,-2104
508295,-2012
508354,-1995
508360,-1871
508381,-1813
508440,-1866
508446,-2126
508466,-2131
508524,-2071
508530,-1942
508550,-1796
508608,-1620
508614,-1532
508636,-1629
508792,-1687
508855,-2572
508914,-2039
508974,-2329
509033,-1933
509051,-2799
509109,-2762
509115,-2731
509137,-2905
509228,-3028
509288,-2473
509305,-2462
509363,-2557
509368,-2450
509390,-2280
509448,-2233
509454,-2617
509474,-2609
509532,-2283
509538,-1831
509559,-2128
509617,-2444
509623,-2063
509644,-1698
509702,-1621
509708,-2023
509729,-2055
509786,-1901
509794,-1548
509815,-1513
509971,-1561
510032,-1653
510090,-2091
510149,-1706
510207,-2313
510213,-2285
510233,-2376
510289,-2414
510295,-2427
510317,-2576
510373,-2628
510381,-2108
510402,-2125
510459,-2482
510465,-2557
510487,-2088
510576,-1872
510634,-1873
510654,-2054
510710,-2031
510719,-1637
510739,-1793
510794,-2022
510803,-1818
510824,-1633
510879,-1639
510888,-1790
510910,-1702
510965,-1579
510974,-1355
510995,-1071
511149,-691
511208,883
511265,-153
511320,-1844
511328,-2696
511382,-3202
511391,-3836
511413,-3609
511468,-3187
511477,-2646
511498,-2478
511550,-2179
511561,-1361
511583,-1139
511634,-1147
511647,-1499
511668,-1533
511720,-1386
511731,-1085
511753,-1122
511804,-1198
511816,-1087
511854,-1010
511905,-983
511923,-885
511973,-948
511986,-1040
512007,-968
512057,-915
512071,-1029
512092,-1052
512141,-1038
512155,-1156
512177,-1099
512324,-826
512377,-474
512426,-874
512432,-1151
512480,-974
512491,-896
512512,-1033
512561,-1169
512576,-1401
512598,-1429
512644,-1315
512662,-1154
512683,-1386
512729,-1718
512747,-1909
512768,-1811
512814,-1830
512832,-2228
512853,-2315
512899,-2214
512916,-1767
512938,-1608
512983,-1555
513002,-1659
513024,-1680
513102,-1652
513108,-1793
513154,-1770
513171,-1572
513193,-1559
513239,-1562
513256,-1264
513277,-1189
513323,-1311
513340,-1390
513457,-1080
513545,-923
513592,-726
513611,-436
513656,-346
513675,-401
513698,-620
513742,-799
513761,-441
513782,-243
513826,-348
513845,-611
513866,-273
513910,91
513930,-192
513951,-397
513995,-290
514015,-145
514037,-414
514080,-535
514100,-97
514123,-168
514166,-502
514186,-460
514207,-110
514250,-78
514270,-818
514292,-818
514334,-550
514371,-436
514377,-1076
514419,-1207
514424,-1022
514442,-826
514464,-886
514604,-1140
514649,-921
514692,-765
514714,-904
514756,-1029
514778,-1032
514799,-974
514841,-974
514845,-1089
514864,-1289
514885,-1420
514927,-1335
514949,-920
514970,-1044
515011,-1352
515016,-1497
515034,-1295
515134,-968
515177,-1773
515218,-1005
515224,-1156
515264,-1351
515269,-1224
515287,-883
515309,-672
515348,-753
515353,-957
515374,-980
515396,-755
515435,-529
515440,-534
515460,-737
515515,-878
515555,-508
515566,-456
515605,-659
515610,-759
515630,-681
515741,-524
515818,-729
515859,-848
515880,-835
515901,-782
515940,-786
515945,-771
515967,-658
515988,-491
516028,-411
516032,-492
516052,-675
516074,-813
516113,-821
516118,-729
516138,-573
516161,-431
516200,-401
516205,-527
516225,-712
516246,-743
516285,-512
516290,-168
516310,6
516331,-127
516371,-396
516376,-519
516397,-392
516419,-142
516458,9
516463,-48
516482,-253
516504,-450
516543,-500
516581,-357
516590,-51
516629,-224
516634,-549
516654,-760
516675,-712
516714,-503
516719,-371
516739,-421
516762,-519
516900,-496
516943,-459
516983,-336
516992,-666
517013,-564
517053,-308
517058,-131
517077,-179
517099,-373
517138,-511
517143,-499
517163,-408
517184,-363
517224,-451
517229,-660
517249,-890
517272,-987
517311,-878
517316,-643
517336,-499
517357,-586
517396,-817
517401,-956
517421,-888
517443,-718
517482,-641
517487,-714
517507,-810
517530,-784
517602,-630
517613,-498
517653,-660
517658,-769
517678,-752
517699,-689
517738,-748
517743,-955
517763,-1142
517785,-1094
517824,-840
517829,-630
517850,-598
517872,-569
517911,-287
517916,180
517936,489
518045,455
518121,917
518128,-411
518167,-552
518186,-1388
518208,-2159
518247,-2909
518253,-3389
518272,-3470
518296,-3210
518335,-2834
518340,-2547
518359,-2363
518380,-2109
518419,-1632
518425,-1013
518446,-541
518467,-431
518507,-603
518512,-774
518532,-759
518553,-600
518625,-497
518637,-622
518676,-411
518681,-167
518701,-47
518722,-73
518762,-156
518767,-238
518788,-347
518809,-475
518849,-513
518854,-414
518874,-315
518895,-384
518935,-560
518940,-569
518960,-284
518981,48
519020,54
519025,-284
519045,-569
519068,-446
519206,-47
519249,174
519289,-295
519297,-398
519318,-244
519358,-264
519363,-407
519384,-457
519404,-358
519443,-268
519448,-326
519470,-461
519491,-517
519531,-477
519535,-475
519555,-581
519577,-707
519616,-743
519654,-718
519662,-711
519701,-683
519706,-600
519726,-531
519747,-520
519787,-530
519792,-498
519813,-433
519835,-385
519874,-353
519879,-278
519899,-153
519920,-91
519960,-202
519965,-424
519984,-566
520006,-533
520045,-397
520050,-319
520070,-351
520092,-425
520131,-441
520136,-355
520158,-197
520179,-12
520218,148
520223,223
520243,180
520351,51
520428,-86
520435,-255
520474,-103
520493,11
520516,-44
520556,-120
520561,-208
520580,-287
520602,-318
520641,-282
520679,-215
520687,-278
520726,-439
520731,-599
520751,-674
520772,-626
520812,-500
520817,-448
520837,-595
520858,-879
520898,-1041
520903,-927
520924,-677
520945,-609
520985,-838
520990,-1120
521010,-1144
521031,-905
521071,-715
521076,-813
521096,-1094
521117,-1281
521157,-1279
521162,-1256
521182,-1352
521203,-1463
521243,-1423
521248,-1281
521268,-1260
521289,-1418
521329,-1543
521334,-1436
521354,-1215
521375,-1215
521514,-1523
521557,-1249
521597,-1234
521604,-1158
521642,-1212
521682,-1238
521691,-1421
521711,-1623
521750,-1737
521755,-1694
521777,-1586
521798,-1534
521838,-1544
521843,-1513
521863,-1408
521884,-1308
521924,-1305
521929,-1381
521949,-1412
521970,-1326
522010,-1183
522015,-1096
522035,-1092
522056,-1118
522096,-1115
522101,-1084
522121,-1057
522142,-1044
522181,-1030
522186,-1070
522206,-1193
522228,-1329
522267,-1316
522272,-1073
522292,-779
522314,-687
522353,-846
522358,-1004
522378,-921
522399,-689
522438,-647
522476,-967
522485,-1468
522525,-1146
522530,-731
522550,-583
522658,-727
522735,-96
522741,-670
522780,-824
522800,-630
522822,-374
522861,-256
522866,-350
522887,-500
522909,-460
522948,-185
522953,89
522973,100
522994,-203
523033,-562
523038,-667
523058,-460
523081,-171
523120,-94
523125,-277
523145,-491
523166,-457
523206,-133
523211,222
523230,289
523252,4
523291,-341
523296,-403
523317,-138
523339,161
523378,192
523383,-69
523404,-354
523425,-403
523465,-217
523502,33
523510,183
523549,59
523554,-115
523575,-234
523596,-228
523636,-142
523641,-122
523661,-257
523682,-437
523820,-471
523862,-360
523903,-346
523912,-851
523933,-772
523972,-506
523977,-366
523997,-508
524019,-764
524059,-859
524064,-751
524083,-620
524106,-669
524145,-866
524150,-1018
524170,-1034
524192,-999
524231,-1014
524236,-1030
524256,-970
524277,-862
524316,-837
524321,-935
524341,-1026
524363,-981
524402,-853
524407,-808
524428,-904
524450,-1014
524522,-1020
524534,-1066
524573,-1047
524578,-902
524598,-824
524620,-1007
524659,-1319
524664,-1391
524684,-1045
524705,-575
524744,-426
524749,-706
524771,-1001
524792,-818
524832,-152
524837,487
524856,613
524965,252
525041,227
525048,-1837
525087,-2077
525107,-2965
525129,-3702
525168,-4223
525174,-4263
525194,-3885
525215,-3396
525255,-3026
525260,-2759
525280,-2446
525301,-2047
525341,-1659
525346,-1414
525366,-1359
525387,-1452
525427,-1598
525432,-1684
525452,-1631
525490,-1485
525529,-1421
525537,-1687
525558,-1575
525598,-1197
525603,-875
525623,-940
525644,-1337
525684,-1643
525689,-1566
525709,-1272
525730,-1170
525769,-1388
525775,-1637
525794,-1569
525816,-1214
525855,-919
525860,-908
525882,-1043
525903,-1104
525943,-1065
525948,-1070
525968,-1201
526163,-1353
526240,-1086
526318,-1294
526324,-925
526364,-710
526383,-863
526404,-1052
526444,-1168
526449,-1100
526470,-840
526492,-616
526531,-696
526536,-1070
526556,-1397
526594,-1366
526633,-1026
526640,-681
526661,-851
526700,-997
526705,-1015
526725,-995
526746,-1021
526785,-1058
526790,-1033
526810,-912
526831,-746
526871,-611
526876,-539
526897,-515
526919,-475
526958,-389
526963,-306
526983,-312
527004,-416
527043,-550
527048,-623
527068,-617
527091,-590
527131,-565
527136,-514
527244,-395
527286,-98
527326,-30
527342,-169
527381,-302
527386,-347
527408,-269
527429,-173
527468,-164
527473,-216
527493,-218
527515,-115
527554,3
527559,14
527596,-54
527601,-111
527641,-129
527646,-192
527665,-349
527687,-515
527726,-569
527731,-503
527751,-439
527772,-478
527812,-611
527817,-728
527838,-732
527858,-621
527897,-497
527903,-496
527924,-658
527945,-897
527985,-1046
527990,-1028
528010,-934
528031,-936
528070,-1078
528076,-1257
528095,-1346
528117,-1307
528156,-1217
528161,-1134
528181,-1061
528203,-1002
528242,-977
528247,-1002
528267,-1039
528389,-1017
528466,-989
528507,-1027
528518,-1010
528539,-1097
528611,-1243
528623,-1385
528662,-1214
528667,-1155
528687,-1354
528709,-1669
528748,-1769
528754,-1505
528775,-1106
528797,-943
528836,-1132
528841,-1431
528861,-1505
528882,-1291
528922,-1033
528927,-975
528947,-1134
528968,-1311
529008,-1357
529013,-1292
529033,-1214
529054,-1184
529094,-1169
529099,-1121
529119,-1069
529140,-1058
529180,-1042
529185,-978
529205,-895
529226,-889
529265,-1003
529270,-1118
529290,-1063
529312,-827
529351,-611
529356,-619
529377,-817
529415,-973
529553,-897
529596,-921
529636,-926
529649,-1190
529688,-1124
529693,-1040
529713,-1026
529735,-1032
529774,-954
529779,-798
529799,-700
529820,-750
529859,-848
529864,-837
529886,-716
529907,-661
529946,-797
529951,-1058
529971,-1234
529993,-1199
530032,-1035
530037,-923
530057,-920
530078,-926
530118,-837
530123,-667
530143,-519
530164,-460
530203,-463
530208,-481
530230,-516
530251,-601
530290,-691
530295,-709
530315,-653
530336,-614
530376,-666
530381,-752
530419,-748
530424,-626
530463,-528
530468,-565
530488,-649
530509,-636
530548,-538
530553,-526
530573,-702
530595,-936
530732,-1004
530775,-1020
530815,-841
530824,-957
530846,-1056
530885,-1094
530890,-1055
530912,-992
530933,-935
530972,-858
530977,-733
530997,-639
531018,-693
531058,-864
531063,-968
531083,-873
531104,-693
531143,-697
531148,-961
531170,-1221
531191,-1173
531231,-841
531236,-571
531255,-612
531277,-902
531316,-1150
531321,-1186
531341,-1122
531362,-1135
531434,-1227
531445,-812
531485,-479
531490,-188
531510,66
531532,291
531572,493
531577,695
531597,927
531618,1125
531657,1215
531662,1192
531682,1148
531704,1156
531743,1161
531748,989
531768,551
531876,-32
531953,-2560
531960,-2849
531999,-2626
532020,-2051
532041,-1732
532081,-1457
532086,-1248
532106,-1054
532127,-849
532167,-681
532172,-591
532191,-522
532213,-405
532252,-290
532257,-277
532277,-348
532300,-366
532339,-224
532344,-17
532364,52
532385,-109
532458,-339
532469,-89
532508,-81
532513,-272
532535,-458
532556,-443
532595,-261
532600,-144
532620,-250
532642,-446
532681,-443
532686,-151
532706,142
532727,82
532767,-289
532772,-544
532791,-356
532814,100
532854,332
532859,112
532879,-245
532900,-312
533038,-33
533081,-191
533121,-315
533130,-289
533151,-462
533191,-619
533196,-516
533216,-176
533237,97
533276,68
533281,-133
533301,-160
533322,115
533362,436
533367,433
533388,32
533409,-457
533449,-644
533454,-427
533492,-69
533497,68
533536,-140
533541,-465
533559,-530
533581,-192
533620,297
533625,543
533646,392
533668,63
533707,-102
533712,-20
533732,131
533753,176
533792,126
533798,88
533817,71
533840,29
533879,6
533884,122
533904,370
533925,558
533965,519
533970,300
533990,101
534011,5
534050,-61
534055,-124
534076,-105
534185,22
534261,50
534268,313
534307,161
534328,413
534349,368
534388,130
534393,-31
534413,26
534434,140
534474,88
534478,-131
534500,-323
534521,-376
534594,-385
534605,-509
534644,-421
534649,-371
534669,-440
534691,-543
534730,-562
534735,-459
534756,-343
534778,-359
534817,-536
534822,-760
534842,-880
534864,-860
534903,-814
534908,-890
534927,-1113
534950,-1347
534989,-1465
534994,-1427
535014,-1291
535036,-1143
535075,-1032
535080,-988
535100,-1016
535122,-1048
535161,-970
535166,-782
535186,-657
535207,-767
535345,-1054
535388,-1169
535428,-850
535437,-360
535459,-399
535498,-511
535503,-582
535523,-612
535891,-586
536079,-335
536158,-807
536200,-617
536206,-795
536245,-936
536250,-883
536270,-707
536291,-661
536331,-847
536336,-1054
536356,-976
536464,-658
536540,-479
536547,-607
536586,-835
536607,-841
536628,-659
536667,-477
536672,-411
536694,-488
536715,-581
536754,-532
536759,-319
536779,-139
536801,-188
536840,-455
536845,-735
536865,-828
536965,-741
537007,-659
537047,-390
537054,-393
537093,-551
537099,-633
537118,-570
537140,-461
537179,-435
537184,-547
537204,-684
537242,-732
537281,-686
537290,-689
537311,-824
537351,-915
537356,-889
537376,-777
537397,-673
537436,-617
537441,-580
537463,-506
537484,-429
537622,-430
537665,-1016
537705,-786
537714,-717
537735,-984
537774,-1049
537779,-759
537799,-411
537821,-416
537860,-800
537865,-1125
537885,-1022
537906,-641
537945,-464
537951,-685
537972,-975
537993,-929
538033,-580
538038,-336
538057,-468
538079,-787
538118,-950
538123,-909
538143,-857
538164,-894
538204,-901
538209,-783
538246,-636
538251,-575
538291,-489
538296,-138
538315,441
538337,888
538376,949
538381,790
538401,789
538422,1073
538462,1367
538467,1355
538488,1039
538510,631
538549,268
538554,-81
538574,-447
538595,-810
538634,-1216
538639,-1757
538659,-2394
538768,-2879
538845,-2567
538851,-1212
538891,-893
538911,-782
538932,-801
538971,-733
538976,-525
538996,-296
539017,-293
539056,-598
539061,-941
539083,-959
539104,-622
539144,-300
539149,-357
539168,-713
539190,-968
539262,-905
539273,-574
539313,-437
539318,-179
539338,-90
539359,-355
539398,-740
539403,-805
539425,-445
539446,-66
539485,-137
539490,-633
539510,-1068
539532,-1026
539571,-564
539576,-136
539596,-107
539617,-426
539657,-735
539662,-743
539683,-488
539704,-237
539744,-237
539749,-465
539769,-643
539790,-574
539928,-365
539971,-89
540011,-823
540020,-41
540041,349
540080,90
540085,-506
540105,-757
540127,-420
540166,27
540171,5
540192,-462
540214,-852
540253,-847
540291,-616
540298,-503
540338,-382
540343,-83
540362,128
540384,48
540423,-137
540428,-78
540449,249
540471,505
540510,388
540515,31
540535,-166
540556,-47
540596,175
540600,219
540622,67
540643,-34
540682,47
540687,199
540707,240
540728,148
540768,69
540773,97
540794,176
540815,197
540855,153
540860,104
540880,55
540901,-12
540940,-58
540945,2
540965,193
541073,360
541150,274
541156,-146
541196,-294
541216,-217
541239,-245
541279,-283
541283,-229
541303,-119
541325,-91
541397,-199
541408,-372
541448,-280
541453,-270
541472,-397
541494,-576
541533,-634
541538,-517
541560,-367
541581,-394
541620,-610
541625,-792
541645,-744
541667,-527
541706,-387
541711,-482
541731,-672
541752,-718
541792,-562
541797,-357
541818,-245
541839,-241
541879,-299
541884,-398
541904,-520
541925,-600
541964,-565
541969,-453
541989,-401
542011,-466
542050,-545
542055,-508
542075,-344
542098,-187
542236,-152
542279,-468
542319,-711
542326,-453
542348,-428
542420,-549
542433,-297
542472,-160
542477,-231
542497,-406
542518,-512
542558,-496
542563,-440
542583,-428
542604,-475
542643,-507
542648,-491
542670,-436
542691,-375
542730,-339
542735,-339
542755,-369
542777,-389
542816,-339
542821,-208
542841,-40
542862,18
542901,-153
542906,-462
542928,-635
542949,-461
542988,-56
542993,189
543013,10
543034,-394
543073,-575
543078,-360
543100,-78
543121,-129
543160,-471
543165,-685
543185,-515
543206,-174
543246,-45
543251,-179
543387,-281
543463,-512
543504,-481
543520,-419
543542,-377
543580,-270
543586,-121
543607,-13
543628,-4
543667,-70
543672,-184
543693,-369
543715,-580
543754,-700
543759,-613
543779,-383
543800,-217
543839,-232
543844,-323
543865,-316
543887,-203
543926,-157
543931,-275
543951,-427
543972,-433
544011,-322
544016,-287
544036,-407
544059,-502
544098,-400
544103,-173
544123,-96
544145,-308
544184,-618
544189,-720
544210,-574
544230,-423
544269,-498
544274,-743
544295,-889
544333,-804
544372,-624
544380,-662
544401,-739
544539,-681
544582,-361
544621,-532
544632,-690
544654,-558
544693,-515
544698,-646
544718,-810
544739,-840
544779,-745
544784,-682
544804,-711
544825,-714
544865,-560
544870,-317
544889,-217
544911,-386
544950,-680
544955,-836
544975,-752
544997,-574
545036,-517
545041,-656
545062,-842
545084,-878
545124,-695
545128,-391
545148,-128
545170,45
545209,222
545214,500
545234,857
545255,1161
545295,1313
545300,1363
545320,1459
545358,1627
545397,1696
545405,991
545426,439
545466,-23
545470,-431
545492,-886
545513,-1411
545553,-1938
545558,-2393
545578,-2700
545683,-2767
545760,-1373
545767,-609
545806,-676
545811,-804
545829,-729
545851,-526
545891,-525
545896,-819
545916,-1087
545937,-980
545977,-580
545982,-300
546002,-345
546023,-484
546063,-412
546068,-154
546087,7
546109,-76
546148,-215
546153,-218
546174,-147
546196,-191
546235,-400
546240,-606
546260,-664
546281,-631
546321,-618
546359,-612
546366,-405
546406,-229
546411,-114
546430,-96
546452,-123
546491,-134
546496,-127
546518,-161
546539,-284
546578,-435
546583,-454
546603,-248
546625,64
546664,231
546669,156
546689,20
546710,80
546848,335
546891,-85
546931,-63
546940,-394
546962,-234
547002,40
547007,152
547027,-41
547048,-402
547089,-616
547094,-540
547113,-319
547134,-178
547175,-145
547180,-63
547198,108
547220,185
547261,26
547266,-187
547284,-146
547306,92
547347,125
547352,-246
547370,-643
547408,-532
547450,71
547455,451
547477,-4
547518,-163
547523,155
547542,498
547563,419
547605,48
547610,-132
547628,29
547649,205
547691,102
547696,-99
547714,-15
547735,369
547775,659
547781,575
547800,322
547998,288
548119,820
548165,760
548208,1009
548216,656
548237,367
548280,243
548300,230
548321,126
548364,39
548386,160
548407,90
548449,-154
548470,-299
548493,-154
548535,-155
548555,-542
548577,-489
548619,-235
548624,-41
548642,-30
548663,-117
548705,-208
548744,-374
548749,-390
548791,-318
548812,-335
548833,-501
548875,-589
548897,-424
548919,-409
548961,-412
548981,-238
549003,-275
549143,-444
549189,-470
549231,-302
549254,-333
549296,-461
549317,-396
549338,-338
549380,-264
549385,-156
549403,-65
549424,-105
549466,-264
549471,-370
549489,-291
549511,-119
549553,-31
549575,-253
549596,-275
549638,-169
549659,-103
549680,-221
549722,-310
549727,-301
549745,-234
549767,-174
549809,-184
549831,-401
549852,-504
549927,-457
549935,-149
549977,-269
549982,-283
550001,-110
550022,93
550064,100
550069,-37
550087,-105
550108,-16
550150,102
550172,6
550281,-22
550363,-201
550407,-865
550422,-158
550444,30
550486,-217
550506,-444
550529,-42
550571,278
550591,138
550613,43
550655,6
550659,-106
550678,-241
550699,-213
550741,-18
550746,67
550764,-132
550785,-395
550828,-355
550850,389
550871,286
550913,-148
550934,-348
550955,-100
550997,-93
551002,-374
551020,-630
551042,-589
551084,-319
551122,-76
551127,-41
551169,-71
551191,-9
551212,63
551254,93
551276,-231
551298,-393
551438,-350
551484,-303
551527,-527
551547,-606
551589,-355
551612,-525
551633,-777
551675,-823
551695,-522
551717,-545
551759,-694
551763,-789
551782,-698
551803,-458
551845,-271
551850,-324
551868,-599
551889,-873
551931,-929
551936,-803
551954,-707
551976,-792
552018,-941
552040,-690
552061,-366
552103,-101
552125,397
552146,694
552188,886
552209,1036
552230,1240
552273,1432
552312,944
552317,476
552360,220
552379,-142
552400,-805
552443,-1620
552464,-2113
552575,-1924
552659,-1871
552704,-752
552715,-407
552737,-393
552780,-441
552800,-449
552821,-375
552865,-281
552885,-396
552907,-638
552950,-734
552969,-144
552991,-1
553034,-220
553055,-464
553076,-115
553120,200
553140,53
553161,-89
553205,-128
553224,-225
553247,-191
553291,-21
553310,7
553331,-285
553375,-486
553395,-26
553417,179
553461,57
553479,-404
553503,-234
553547,75
553585,-79
553590,-368
553732,-384
553781,140
553825,-317
553838,5
553882,326
553900,-203
553922,-493
553966,-371
553985,-88
554008,-390
554052,-600
554071,49
554092,241
554136,-15
554156,-338
554178,92
554222,434
554240,-232
554262,-463
554306,-163
554327,286
554348,-149
554392,-514
554411,119
554432,395
554476,243
554495,-31
554518,187
554562,269
554581,-166
554603,-143
554647,61
554666,-178
554687,-448
554731,-382
554751,137
554866,-23
554953,66
554999,223
555004,130
555042,217
555086,388
555108,187
555152,76
555171,-45
555192,-136
555236,-202
555255,-282
555277,-403
555321,-514
555340,-430
555363,-366
555407,-399
555426,-539
555447,-585
555492,-695
555511,-1109
555532,-1153
555576,-988
555595,-774
555617,-1025
555661,-1300
555682,-1037
555703,-733
555747,-673
555766,-995
555787,-943
555832,-755
555851,-611
555872,-616
556015,-551
556062,-800
556108,-842
556123,-1151
556167,-818
556186,-344
556208,-712
556252,-1129
556271,-796
556308,-445
556353,-475
556358,-982
556378,-859
556422,-613
556441,-794
556463,-1021
556507,-989
556527,-543
556549,-588
556593,-754
556612,-609
556633,-470
556677,-603
556696,-1066
556718,-904
556762,-643
556781,-758
556804,-830
556848,-631
556867,-314
556888,-484
556932,-576
556951,-308
556973,-423
557017,-733
557038,-870
557149,-670
557236,-559
557282,-468
557288,-828
557309,-929
557353,-781
557372,-341
557393,-405
557437,-571
557458,-591
557479,-519
557523,-532
557542,-577
557580,-513
557624,-495
557630,-501
557649,-369
557693,-229
557712,-400
557733,-523
557777,-474
557797,-329
557818,-379
557861,-316
557883,39
557904,-84
557947,-327
557967,-143
557989,18
558031,-173
558036,-553
558054,-715
558076,-572
558118,-466
558139,-892
558160,-740
558301,-202
558347,-88
558391,-873
558410,-859
558453,-584
558474,-417
558495,-605
558538,-806
558559,-515
558580,-242
558622,-259
558627,-524
558645,-688
558744,-561
558789,-709
558834,-129
558911,-732
558918,-245
558961,-339
558981,-563
559003,-462
559046,-315
559065,-108
559088,-2
559131,156
559151,617
559172,880
559215,1130
559236,1533
559257,1629
559300,1600
559321,1190
559432,879
559517,-2010
559563,-2607
559570,-2108
559592,-1613
559637,-1265
559655,-1011
559677,-774
559721,-488
559742,-418
559763,-558
559808,-628
559826,-587
559848,-427
559892,-108
559911,128
559932,-191
559977,-407
559997,212
560018,334
560063,-22
560082,-586
560103,-309
560147,-62
560186,-148
560190,27
560234,363
560252,238
560273,-136
560318,-232
560336,175
560358,18
560402,-463
560422,-980
560444,-706
560587,-353
560635,19
560680,16
560694,248
560739,182
560757,-129
560779,-121
560823,-97
560842,-281
560863,-328
560908,-281
560927,-231
560948,-246
560993,-189
561013,23
561034,0
561078,-115
561097,-230
561119,-19
561163,305
561182,358
561203,26
561248,-132
561267,443
561288,508
561333,167
561353,-291
561375,48
561419,440
561438,524
561459,392
561537,276
561543,323
561588,471
561607,141
561720,-124
561807,310
561854,2
561859,188
561878,311
561922,176
561941,-303
561964,-146
562009,147
562028,-15
562049,-318
562093,-366
562112,68
562133,22
562178,-245
562197,-510
562218,-390
562263,-288
562282,-476
562303,-611
562348,-578
562367,-90
562388,-77
562432,-417
562453,-1035
562474,-780
562519,-444
562538,-972
562559,-1410
562604,-1339
562623,-480
562644,-577
562689,-942
562708,-918
562730,-643
562873,-617
562921,-911
563000,-669
563047,-676
563062,-753
563106,-1058
563125,-761
563147,-343
563192,-259
563210,-793
563232,-675
563275,-271
563296,-196
563317,-641
563361,-954
563381,-732
563403,-626
563446,-654
563465,-647
563487,-556
563530,-487
563550,-420
563572,-411
563615,-452
563636,-480
563657,-480
563700,-542
563720,-600
563743,-416
563786,-265
563807,-581
563828,-614
563871,-366
563892,-135
564005,-395
564089,-426
564134,-75
564141,-225
564162,-37
564205,151
564227,-96
564265,-263
564308,-290
564313,-399
564333,-547
564376,-606
564397,-525
564418,-592
564461,-684
564481,-561
564503,-453
564546,-455
564566,-593
564588,-574
564631,-549
564651,-633
564673,-673
564716,-636
564736,-545
564758,-606
564801,-678
564821,-381
564843,-115
564886,-62
564906,-584
564929,-626
564972,-368
564991,-192
565014,-459
565156,-546
565202,-645
565247,-402
565264,-1213
565307,-977
565328,-166
565349,-324
565392,-798
565413,-1221
565434,-978
565478,-789
565497,-1071
565534,-1118
565578,-902
565584,-494
565604,-573
565647,-658
565667,-508
565689,-548
565732,-782
565753,-1201
565774,-1035
565818,-697
565837,-396
565858,-547
565902,-657
565922,-427
565944,-459
565987,-756
566008,-1153
566029,-971
566073,-874
566093,-1412
566115,-1420
566158,-972
566177,-166
566290,-322
566375,1410
566421,1405
566428,775
566450,234
566494,-318
566513,-1505
566534,-2105
566579,-2542
566598,-2715
566620,-2668
566664,-2619
566683,-2084
566705,-1559
566783,-1139
566789,-855
566834,-522
566852,-126
566873,-364
566918,-589
566937,-181
566958,90
567003,73
567022,-413
567043,-479
567088,-408
567107,-406
567129,-598
567174,-818
567193,-730
567214,-365
567259,-73
567278,-193
567299,-244
567443,-66
567492,-370
567538,-620
567550,-362
567595,-235
567613,-437
567635,-454
567680,-290
567697,-84
567720,-278
567765,-491
567783,-522
567804,-493
567849,-533
567868,-395
567889,-217
567934,-174
567953,-354
567975,-228
568020,-13
568277,-160
568411,-362
568599,28
568690,53
568737,-365
568783,3
568802,-175
568848,183
568867,677
568888,413
568933,117
568952,235
568974,312
569019,181
569036,-44
569058,17
569103,-2
569122,-313
569143,-352
569188,-341
569207,-628
569229,-779
569274,-793
569291,-731
569313,-769
569358,-743
569377,-562
569399,-649
569444,-861
569461,-1079
569562,-1004
569610,-733
569756,-840
569848,-1062
569896,-673
569902,-866
569948,-684
569962,-749
569983,-1036
570029,-1158
570068,-699
570115,-731
570131,-775
570152,-459
570198,-228
570217,-461
570238,-523
570283,-384
570301,-332
570323,-512
570367,-592
570387,-501
570409,-641
570452,-839
570471,-852
570493,-821
570537,-895
570557,-842
570579,-669
570623,-606
570641,-821
570663,-820
570707,-735
570727,-700
570749,-698
570891,-655
570939,-530
570984,-817
570998,-619
571042,-464
571063,-519
571084,-619
571128,-687
571147,-782
571169,-866
571212,-925
571233,-844
571254,-849
571298,-969
571317,-1112
571355,-910
571399,-637
571405,-611
571424,-817
571468,-872
571487,-449
571509,-430
571553,-730
571573,-1160
571595,-862
571639,-487
571658,-741
571679,-1112
571723,-1131
571742,-370
571764,-328
571808,-615
571828,-848
571850,-619
571893,-481
571912,-565
572025,-493
572111,-324
572157,-668
572163,-489
572185,-628
572229,-859
572248,-668
572269,-470
572313,-516
572334,-769
572355,-618
572399,-431
572418,-501
572439,-617
572483,-676
572504,-579
572525,-475
572569,-428
572608,-609
572613,-600
572657,-425
572674,-306
572696,-509
572740,-637
572758,-350
572780,-239
572824,-246
572844,-58
572865,143
572909,199
572928,-89
572949,-96
572993,38
573013,17
573034,-178
573176,-216
573223,191
573268,141
573285,77
573329,56
573349,394
573371,915
573414,1490
573433,1926
573455,2000
573500,2290
573519,2811
573540,2461
573585,1843
573604,999
573626,702
573670,188
573689,-1182
573711,-1617
573756,-1806
573775,-1823
573796,-1762
573841,-1625
573880,-1113
573926,-552
573943,-85
573965,79
574010,118
574029,39
574050,127
574095,318
574114,515
574136,430
574181,310
574198,271
574310,384
574399,121
574446,173
574452,-511
574470,-495
574515,-327
574534,-315
574555,-393
574601,-307
574618,129
574641,193
574687,178
574704,253
574725,264
574771,193
574788,-4
574811,-107
574857,-221
574874,-142
574895,12
574941,50
574960,-223
574981,-279
575027,-221
575044,-152
575065,-249
575111,-401
575130,-539
575151,-407
575197,-240
575236,-273
575282,-388
575298,-325
575319,-341
575463,-310
575513,-415
575560,-352
575570,-342
575616,-590
575633,-591
575655,-216
575701,35
575718,-389
575739,-581
575785,-489
575804,-190
575825,-328
575871,-579
575889,-675
575910,-429
575956,-201
575973,-379
575995,-574
576041,-555
576060,-313
576081,-505
576127,-785
576144,-709
576165,-537
576211,-539
576229,-514
576250,-251
576296,-88
576314,-482
576336,-562
576382,-379
576399,-440
576420,-926
576466,-1245
576603,-812
576694,-665
576742,-687
576753,-598
576799,-830
576818,-874
576839,-711
576885,-649
576902,-841
576924,-854
576970,-767
576989,-667
577010,-679
577056,-658
577073,-631
577094,-733
577140,-830
577158,-722
577179,-642
577225,-681
577242,-802
577264,-711
577309,-604
577328,-624
577349,-610
577393,-505
577413,-588
577435,-897
577478,-1100
577499,-599
577520,-361
577564,-476
577583,-803
577604,-519
577746,-164
577793,-679
577838,-881
577855,-1104
577899,-946
578057,-532
578144,-680
578190,-614
578235,-706
578250,-462
578272,-753
578316,-1100
578337,-998
578356,-791
578400,-873
578421,-1423
578442,-1264
578486,-839
578505,-688
578527,-1021
578571,-1150
578591,-608
578613,-588
578656,-904
578675,-1232
578697,-953
578741,-674
578761,-801
578871,-968
578957,-958
579003,-850
579012,-658
579033,-520
579077,-488
579096,-773
579117,-920
579161,-977
579182,-972
579203,-980
579247,-923
579266,-681
579287,-710
579331,-866
579352,-889
579390,-699
579434,-622
579439,-913
579457,-944
579501,-821
579522,-741
579543,-795
579587,-771
579606,-777
579629,-909
579673,-955
579692,-619
579713,-685
579757,-1001
579777,-1103
579799,-724
579843,-531
579862,-1172
579883,-1291
580026,-987
580073,-1068
580117,-1424
580133,-972
580176,-709
580197,-930
580218,-890
580261,-638
580283,-704
580382,-1091
580427,-917
580471,-929
580515,-431
580534,265
580555,344
580598,358
580619,897
580640,1231
580684,1260
580703,698
580726,522
580802,360
580809,-1493
580853,-2062
580872,-2627
580895,-2880
580939,-3090
580958,-2835
580980,-2407
581025,-2008
581042,-1546
581154,-1380
581242,-759
581289,-1023
581295,-622
581315,-556
581360,-672
581377,-697
581400,-419
581445,-137
581464,-18
581485,-12
581530,76
581548,192
581570,163
581614,137
581633,56
581655,2
581699,1
581718,145
581739,130
581785,85
581803,258
581825,379
581870,358
581889,28
581910,12
581955,142
581974,247
581995,34
582040,-163
582058,141
582095,372
582141,305
582147,-88
582165,85
582308,309
582357,251
582403,-109
582416,43
582461,-133
582478,18
582501,242
582546,227
582563,22
582585,303
582630,676
582649,720
582670,567
582715,566
582734,656
582756,524
582801,416
582820,551
582840,576
582885,471
582904,483
582925,665
582971,742
582989,518
583011,515
583056,608
583074,605
583095,611
583140,702
583159,433
583181,30
583226,-185
583245,268
583266,452
583312,409
583329,289
583442,385
583531,631
583611,280
583658,156
583664,-301
583684,-316
583729,-203
583748,-227
583769,-372
583814,-432
583833,-230
583854,-151
583899,-175
583918,-432
583940,-473
583985,-387
584002,-556
584024,-961
584069,-1205
584088,-496
584110,-226
584155,-463
584173,-1098
584194,-797
584240,-344
584259,-248
584280,-405
584326,-476
584343,-612
584365,-650
584410,-542
584427,-427
584450,-666
584593,-889
584641,-644
584685,-306
584699,-229
584742,-435
584763,-1034
584784,-1035
584828,-904
584848,-1101
584886,-1251
584930,-1072
584936,-316
584955,-291
584999,-416
585018,-236
585041,-84
585084,-135
585103,-463
585124,-476
585168,-414
585189,-413
585210,-496
585253,-569
585274,-569
585295,-532
585338,-535
585359,-607
585380,-579
585423,-485
585444,-356
585465,-446
585509,-634
585529,-788
585550,-623
585594,-504
585614,-722
585727,-637
585812,-357
585857,-696
585864,-1098
585886,-1023
585929,-870
585949,-648
585971,-508
586014,-344
586034,-325
586056,-573
586099,-831
586137,-653
586142,-389
586185,-388
586204,-977
586226,-893
586269,-538
586289,-452
586311,-707
586354,-738
586374,-510
586396,-693
586439,-799
586459,55
586481,312
586524,5
586544,-703
586566,-410
586609,-58
586629,-436
586650,-773
586694,-799
586714,-373
586737,-320
586879,-396
586925,-327
586970,-515
586987,-496
587030,-609
587050,-835
587072,-826
587115,-836
587135,-968
587157,-847
587200,-601
587220,-550
587242,-721
587285,-669
587305,-81
587326,-192
587370,-614
587408,-830
587413,-471
587456,-271
587475,-758
587496,-862
587539,-674
587560,-485
587581,-742
587624,-937
587645,-579
587666,-428
587709,-550
587730,-543
587751,25
587794,615
587816,694
587837,652
587881,1035
587900,1973
588014,1797
588100,-423
588147,-2579
588153,-3411
588173,-3072
588218,-2478
588235,-1693
588257,-1352
588302,-913
588321,-318
588342,-160
588387,51
588406,0
588427,-461
588472,-833
588491,-513
588513,-287
588558,-308
588577,-389
588598,-232
588676,-113
588683,63
588728,85
588745,-248
588767,-320
588812,-254
588831,-393
588852,-520
588898,-388
588915,65
588936,-126
588982,-403
589001,21
589022,341
589166,247
589215,-366
589262,-665
589273,-792
589318,-660
589335,-593
589357,-806
589402,-885
589421,-490
589442,-602
589488,-967
589505,-996
589527,-670
589572,-642
589591,-1307
589612,-1175
589658,-686
589675,-420
589697,-792
589742,-1019
589761,-670
589782,-570
589827,-646
589846,-658
589868,-570
589913,-576
589952,-616
589998,-506
590015,-841
590036,-911
590082,-779
590101,-535
590122,-625
590167,-717
590185,-512
590298,-374
590387,-971
590434,-1244
590456,-916
590501,-967
590520,-1012
590541,-792
590587,-657
590604,-1234
590626,-1471
590671,-1310
590690,-837
590711,-1104
590757,-1405
590774,-826
590796,-482
590841,-661
590860,-1362
590881,-1068
590927,-655
590944,-1026
590966,-1351
591011,-1250
591030,-716
591051,-894
591097,-1213
591114,-1264
591215,-1066
591263,-982
591310,-614
591487,-798
591577,-1229
591626,-1269
591635,-1056
591679,-974
591698,-1291
591719,-1493
591763,-1537
591784,-1541
591805,-1749
591849,-1959
591868,-1733
591890,-1492
591934,-1416
591954,-1398
591974,-1131
592018,-799
592038,-695
592060,-803
592104,-766
592123,-485
592146,-591
592189,-864
592208,-1335
592230,-1438
592274,-1529
592293,-1691
592316,-1649
592360,-1482
592379,-1005
592400,-916
592445,-932
592463,-804
592485,-701
592628,-771
592675,-1141
592721,-1206
592760,-1074
592805,-491
592819,-780
592863,-880
592884,-361
592905,-325
592949,-592
592968,-883
592989,-757
593034,-743
593053,-1060
593074,-1083
593118,-1051
593139,-1154
593160,-1199
593205,-1150
593224,-966
593245,-883
593289,-767
593308,-635
593330,-661
593374,-697
593393,-657
593414,-647
593458,-674
593479,-707
593500,-664
593545,-618
593563,-542
593585,-399
593629,-175
593648,-65
593761,-281
593848,-231
593894,-415
593900,-452
593920,-740
593964,-838
593984,-346
594022,-107
594066,-78
594072,-501
594090,-648
594134,-601
594153,-262
594176,-229
594220,-272
594239,-389
594260,-414
594304,-342
594323,21
594346,-58
594390,-397
594409,-644
594431,-264
594474,26
594495,-436
594516,-632
594560,-449
594579,185
594600,153
594644,-10
594664,-71
594685,-1
594729,-12
594749,-357
594770,-479
594912,-433
594959,26
595004,1042
595021,1288
595066,1399
595084,1466
595106,1355
595151,1120
595170,389
595191,-100
595236,-736
595254,-2190
595276,-2576
595353,-2675
595360,-3133
595406,-2990
595424,-1698
595446,-1259
595492,-1193
595509,-1252
595531,-1143
595576,-1008
595594,-664
595615,-603
595660,-793
595679,-1162
595701,-829
595746,-318
595764,-128
595785,-391
595830,-525
595849,-289
595871,-186
595916,-173
595935,-358
596047,-452
596135,-376
596183,-77
596204,432
596250,263
596268,-285
596290,-81
596335,276
596353,7
596376,-339
596421,-260
596438,722
596460,825
596506,672
596523,873
596544,1152
596590,1125
596629,256
596676,152
596693,244
596714,-75
596761,-287
596778,684
596799,1341
596845,1481
596863,766
596884,794
596931,1102
596948,1040
596970,681
597016,525
597033,690
597055,653
597200,591
597251,339
597298,579
597304,1156
597350,942
597368,339
597389,550
597435,831
597453,287
597474,-127
597520,-98
597538,722
597559,778
597605,557
597623,423
597644,674
597690,886
597708,683
597731,455
597777,350
597793,547
597814,666
597861,658
597878,346
597899,264
597946,327
597984,477
598031,129
598047,41
598070,87
598116,55
598133,-245
598155,-391
598201,-481
598218,-479
598333,-427
598424,-194
598472,-290
598488,-537
598534,-520
598552,-479
598573,-655
598619,-823
598637,-742
598659,-759
598705,-922
598722,-1026
598744,-875
598790,-827
598807,-1047
598829,-975
598874,-821
598891,-1053
598915,-1312
598959,-1315
598978,-826
598999,-865
599044,-1124
599063,-1223
599084,-957
599128,-783
599147,-1048
599169,-1162
599213,-1143
599232,-1093
599270,-1110
599314,-1066
599319,-964
599339,-967
599482,-874
599529,-537
599574,-755
599590,-1402
599634,-1372
599653,-1187
599675,-1286
599719,-1396
599738,-1008
599759,-626
599804,-483
599822,-923
599844,-933
599888,-682
599909,-767
599930,-1200
599974,-1426
599993,-928
600015,-774
600059,-821
600078,-865
600099,-827
600143,-777
600164,-374
600185,-318
600229,-695
600248,-1605
600269,-1342
600313,-852
600334,-1052
600355,-1481
600399,-1540
600418,-909
600440,-849
600483,-957
600621,-907
600707,-729
600753,-1098
600773,-317
600816,-585
600837,-874
600858,-578
600902,-342
600921,-422
600943,-404
600986,-386
601007,-744
601028,-745
601072,-478
601093,-541
601114,-991
601158,-1125
601177,-384
601198,-490
601242,-1001
601261,-1132
601283,-683
601327,-522
601347,-1115
601369,-1127
601413,-878
601432,-706
601453,-808
601497,-808
601517,-647
601539,-651
601583,-676
601602,-714
601623,-781
601765,-847
601813,-1135
601858,-699
601874,-690
601951,-856
602036,-808
602083,-1312
602128,-1093
602173,-379
602188,389
602210,331
602254,377
602273,1226
602294,1407
602340,1223
602358,800
602380,630
602426,221
602443,-882
602464,-1186
602510,-1543
602529,-2920
602550,-3312
602596,-3143
602614,-2576
602635,-2757
602681,-2807
602698,-1409
602720,-735
602765,-659
602783,-1052
602894,-752
602984,-616
603032,-467
603055,-310
603101,-713
603118,-574
603140,-255
603186,-214
603203,-428
603225,-228
603271,16
603288,-13
603309,-87
603609,-58
603748,36
603840,83
603888,168
604034,-25
604085,-235
604132,-6
604138,105
604184,107
604201,172
604223,268
604269,334
604286,242
604308,236
604354,246
604371,20
604393,-16
604439,142
604456,275
604477,3
604523,-143
604542,316
604563,270
604610,-179
604627,-568
604648,-169
604694,137
604712,-237
604733,-362
604779,-195
604796,189
604818,115
604864,-53
604883,-335
604904,-435
604950,-506
604967,-497
604989,-400
605035,-309
605052,-311
605168,-297
605291,-372
605340,-750
605387,-1098
605406,-425
605452,-456
605470,-694
605491,-558
605537,-443
605554,-817
605576,-950
605622,-839
605639,-676
605660,-748
605707,-648
605724,17
605747,91
605793,-80
605810,-326
605831,-317
605877,-383
605895,-667
605916,-703
605962,-656
605980,-565
606001,-484
606046,-369
606065,-245
606086,-330
606131,-458
606150,-394
606171,-142
606314,39
606363,-174
606409,-353
606421,-226
606466,-253
606484,128
606506,277
606550,114
606571,-264
606608,-19
606652,273
606658,144
606676,9
606720,54
606740,252
606762,269
606806,272
606825,72
606848,-50
606892,50
606910,493
606932,368
606976,100
606996,243
607017,448
607061,372
607080,23
607102,152
607145,266
607166,-6
607187,86
607230,426
607251,370
607272,-47
607316,-129
607336,675
607449,608
607534,265
607580,326
607585,142
607608,-24
607652,135
607670,606
607692,407
607735,86
607756,76
607777,187
607821,131
607841,-81
607862,11
607906,120
607926,-18
607947,-2
608024,223
608032,279
608075,96
608096,514
608117,662
608160,476
608181,121
608202,337
608246,548
608266,412
608287,405
608331,532
608351,310
608373,23
608416,-38
608436,315
608457,247
608598,9
608645,-216
608690,-723
608707,-684
608751,-574
608770,-681
608791,-895
608835,-1007
608855,-497
608877,-243
608921,-335
608939,-978
608960,-906
609003,-591
609024,-548
609045,-855
609089,-974
609109,-565
609130,-505
609174,-637
609194,-788
609216,-781
609259,-840
609280,-956
609318,-865
609361,-753
609367,-603
609386,-385
609430,-68
609450,329
609471,429
609515,626
609534,1166
609555,1248
609599,1240
609620,1260
609732,1122
609819,-964
609866,-2445
609872,-2125
609892,-2040
609937,-1759
609956,-617
609977,-221
610022,-20
610040,345
610062,435
610107,313
610124,12
610147,74
610192,90
610209,-293
610231,-394
610276,-279
610295,121
610316,189
610361,200
610380,314
610402,461
610447,558
610465,208
610486,-94
610531,-218
610550,-34
610572,-122
610650,-347
610656,-250
610702,-183
610719,-295
610741,-228
610885,-118
610933,2
610980,-260
610991,40
611036,-228
611055,-659
611076,-323
611122,87
611140,60
611162,-58
611207,40
611224,418
611246,528
611291,651
611310,644
611332,443
611378,395
611395,1068
611416,1211
611463,959
611480,369
611501,447
611547,606
611565,774
611586,876
611632,942
611649,722
611672,762
611718,1099
611736,1537
611757,1090
611803,488
611821,621
611842,1189
611888,1430
611906,689
612019,485
612142,751
612192,1092
612239,987
612259,751
612305,479
612323,413
612344,550
612390,677
612408,802
612429,708
612475,512
612492,459
612514,637
612560,604
612578,-141
612599,-204
612645,84
612662,357
612684,78
612729,-137
612748,-23
612848,-14
612896,-53
612944,-243
612990,-122
612999,-871
613020,-922
613164,-702
613213,-968
613259,-1375
613270,-487
613314,-408
613335,-949
613356,-832
613400,-450
613419,-202
613441,-451
613485,-627
613504,-412
613525,-243
613570,-172
613608,-168
613613,-136
613657,-123
613675,-234
613696,-311
613740,-338
613759,-321
613780,-349
613824,-400
613844,-329
613866,-238
613909,-236
613930,-546
613951,-614
613995,-563
614015,-532
614036,-606
614080,-584
614100,-353
614122,-330
614165,-371
614185,-316
614299,-315
614384,-715
614429,-688
614435,-590
614456,-609
614500,-614
614520,-612
614542,-681
614585,-765
614604,-752
614627,-666
614671,-586
614690,-633
614711,-809
614755,-999
614775,-925
614797,-763
614873,-764
614881,-1197
614925,-1006
614944,-700
614966,-706
615009,-688
615030,-615
615051,-720
615095,-868
615114,-864
615135,-743
615179,-701
615200,-968
615221,-1019
615265,-837
615284,-289
615305,-346
615448,-564
615495,-479
615540,-564
615555,-548
615599,-604
615619,-532
615641,-511
615684,-458
615705,-317
615726,-453
615770,-679
615790,-745
615811,-718
615855,-864
615875,-963
615897,-594
615940,-261
615961,-529
615982,-702
616025,-645
616046,-712
616067,-1017
616144,-1173
616150,-885
616193,-1108
616214,-978
616235,-631
616279,-497
616299,-1022
616321,-1172
616364,-1050
616384,-641
616406,-585
616449,-613
616470,-800
616581,-821
616666,-799
616711,-324
616720,136
616741,736
616785,1137
616805,845
616827,986
616871,1604
616890,1952
616911,1085
616957,181
616976,-296
616997,-626
617042,-1463
617061,-2865
617081,-2788
617126,-2584
617145,-2650
617166,-2398
617213,-1785
617230,-1002
617251,-1170
617298,-1290
617315,-612
617336,-347
617415,-431
617422,-547
617468,-123
617485,154
617506,-141
617552,-480
617570,-569
617591,-358
617736,-209
617786,104
617833,-34
617842,-564
617887,-703
617905,-345
617926,-225
617972,-344
617990,-502
618011,-220
618057,108
618074,264
618096,223
618142,177
618159,-57
618182,-53
618228,116
618245,197
618266,-50
618312,-243
618330,-113
618351,-61
618397,-109
618414,-219
618436,-358
618482,-529
618501,-263
618522,89
618568,175
618585,-139
618607,115
618653,571
618691,547
618738,222
618754,757
618869,557
618960,116
619008,187
619024,545
619071,695
619088,547
619109,330
619156,259
619173,430
619195,328
619241,112
619258,82
619280,305
619326,451
619344,416
619365,413
619412,415
619429,254
619450,294
619497,512
619514,732
619536,474
619583,159
619598,140
619620,285
619667,254
619684,-335
619705,-490
619752,-384
619769,-75
619791,-222
619837,-464
619855,-521
619876,-399
620022,-389
620073,-682
620121,-636
620126,-848
620173,-759
620212,-376
620259,-734
620273,-641
620294,-354
620341,-395
620358,-1200
620379,-1145
620426,-753
620443,-762
620465,-1135
620511,-1200
620529,-751
620550,-859
620596,-1044
620613,-723
620634,-570
620680,-644
620699,-599
620720,-443
620765,-543
620784,-1033
620806,-930
620851,-722
620868,-703
620889,-588
620934,-297
620953,-278
620976,-507
621021,-503
621038,-164
621154,-438
621242,-238
621289,-70
621309,-306
621354,-426
621372,-561
621394,-603
621439,-515
621458,-236
621495,-381
621540,-607
621546,-365
621564,-75
621608,-35
621629,-443
621650,-405
621695,-245
621714,-332
621735,-498
621780,-570
621798,-564
621819,-563
621864,-456
621883,-136
621904,-187
621949,-331
621968,-190
621989,31
622033,74
622054,-347
622075,-399
622120,-240
622139,-132
622160,-357
622303,-529
622351,-745
622398,-594
622410,-459
622455,-421
622474,-220
622495,-61
622540,9
622559,-144
622580,-144
622625,-67
622644,-109
622665,-171
622710,-109
622729,114
622750,85
622828,40
622834,350
622879,328
622898,-113
622919,-251
622964,-159
622983,168
623004,-29
623049,-388
623068,-417
623089,-97
623134,11
623153,-534
623174,-639
623219,-494
623238,-302
623259,-402
623304,-463
623323,-430
623436,-486
623524,72
623570,40
623576,-28
623673,-361
623719,-147
623765,-16
623810,75
623824,-104
623845,-151
623890,-128
623910,-109
623932,-203
623976,-242
623995,444
624016,977
624061,1295
624080,1476
624102,1811
624147,2253
624165,2385
624186,2172
624385,2040
624575,-1806
624667,355
624716,345
624762,72
624768,-70
624814,289
624829,669
624852,545
624898,506
624916,862
624937,874
624984,711
625001,540
625022,549
625069,457
625086,162
625107,187
625154,300
625171,368
625191,305
625238,247
625255,239
625276,221
625323,159
625340,-95
625363,-183
625409,-169
625425,66
625448,84
625494,-25
625511,-207
625533,-56
625579,181
625596,236
625708,40
625799,153
625847,-35
625867,20
625913,-31
625930,2
625951,154
626031,323
626037,98
626083,130
626099,526
626120,520
626167,344
626184,150
626205,171
626251,164
626269,233
626290,402
626336,502
626354,364
626375,445
626421,715
626439,980
626460,770
626507,570
626524,785
626545,1041
626592,1191
626609,1101
626631,1030
626678,1082
626694,1301
626715,1138
626861,785
626911,362
626960,721
626965,547
627012,449
627030,418
627051,313
627098,229
627115,239
627136,51
627183,-244
627200,-286
627222,-49
627268,54
627284,-251
627307,-323
627386,-229
627393,-11
627439,-257
627453,-694
627475,-574
627521,-364
627538,-397
627561,-479
627607,-382
627625,-162
627646,-299
627692,-402
627710,-69
627731,-41
627776,-329
627794,-883
627815,-704
627860,-425
627878,-529
627993,-767
628080,-509
628126,-707
628132,-1139
628150,-923
628194,-713
628215,-1173
628236,-1349
628280,-1126
628299,-433
628320,-441
628364,-493
628385,-283
628406,-337
628450,-559
628469,-759
628490,-725
628534,-786
628555,-930
628576,-859
628620,-793
628659,-730
628664,-590
628708,-487
628725,-759
628747,-821
628791,-588
628810,-129
628831,-249
628875,-412
628896,-443
628917,-521
628961,-658
628980,-711
629001,-775
629144,-1023
629192,-693
629238,-468
629252,85
629296,-30
629315,-287
629336,-168
629380,-33
629401,-242
629422,-419
629466,-400
629485,-175
629506,-278
629551,-327
629570,408
629593,699
629637,505
629655,-180
629677,23
629721,320
629740,58
629763,-39
629807,198
629825,496
629847,255
629891,109
629929,292
629934,161
629978,-77
629995,183
630017,529
630061,683
630081,745
630103,897
630147,986
630165,605
630279,396
630364,497
630410,870
630416,518
630437,204
630481,34
630501,157
630523,182
630566,63
630587,-65
630608,144
630652,383
630670,279
630693,107
630737,122
630756,333
630777,172
630821,-26
630841,144
630863,198
630907,44
630927,-40
630948,184
630992,217
631011,-289
631032,-182
631076,202
631096,311
631118,-38
631161,-193
631182,132
631203,83
631247,-190
631286,-469
631290,-282
631433,-25
631480,1395
631526,1726
631539,1652
631584,1748
631601,1403
631623,853
631668,314
631687,-270
631708,-597
631753,-1164
631772,-2324
631794,-2451
631839,-2247
631858,-1659
631879,-1466
631925,-1286
631942,-798
631964,-580
632009,-451
632028,-384
632049,-351
632095,-309
632112,-274
632133,-151
632179,82
632198,321
632219,176
632264,25
632283,86
632304,31
632350,-222
632367,-557
632388,-403
632434,-189
632453,-24
632566,56
632654,214
632737,-224
632785,-140
632806,352
632851,265
632869,-53
632892,13
632937,154
632954,220
632976,177
633021,158
633040,245
633061,274
633107,260
633124,344
633147,478
633193,527
633210,166
633232,136
633277,368
633294,623
633316,382
633361,207
633380,527
633402,570
633447,402
633465,452
633486,656
633531,607
633550,84
633572,241
633715,603
633764,550
633811,723
633822,605
633867,450
633886,877
633907,1185
633953,1182
633970,707
633992,685
634038,736
634055,545
634093,417
634138,364
634144,392
634162,384
634208,374
634225,437
634247,559
634292,668
634311,409
634333,208
634378,198
634395,303
634496,43
634543,276
634590,-195
634636,108
634647,13
634668,-208
634713,-351
634732,-234
634845,-103
634934,-256
634982,-418
635003,-333
635049,-525
635066,-444
635088,-389
635133,-568
635151,-896
635173,-726
635217,-557
635236,-613
635259,-551
635302,-438
635321,-693
635343,-769
635386,-534
635407,-160
635428,-430
635472,-630
635492,-143
635530,-49
635574,-316
635580,-738
635598,-612
635642,-490
635662,-418
635684,-320
635727,-301
635746,-361
635768,-150
635811,55
635832,-355
635853,-589
635995,-472
636043,-59
636087,-560
636103,61
636147,12
636167,-539
636188,-225
636232,244
636252,-110
636274,-547
636317,-564
636338,-92
636359,-304
636402,-617
636423,-506
636444,-364
636488,-385
636507,-323
636529,-205
636573,-243
636592,-397
636613,-170
636657,61
636677,-340
636698,-611
636742,-579
636762,-129
636784,-106
636860,-185
636868,-37
636911,68
636932,90
636953,7
636996,-51
637017,-22
637128,-91
637213,-77
637259,-207
637266,95
637288,-48
637331,-283
637352,-206
637373,2
637416,5
637437,-378
637458,-281
637502,-29
637522,-63
637544,-245
637587,-185
637608,441
637629,516
637672,313
637691,-114
637714,-36
637758,180
637776,192
637799,-68
637843,-225
637861,-52
637882,-157
637925,-453
637945,-627
637968,-467
638011,-497
638030,-884
638053,-725
638097,-413
638117,-407
638155,-643
638297,-814
638344,-1083
638388,-1145
638433,-1039
638450,-1467
638472,-1356
638515,-1277
638536,-1397
638558,-1291
638601,-1078
638620,-972
638641,-1078
638685,-1151
638706,-1371
638727,-1511
638771,-1492
638791,-927
638813,-729
638856,-679
638877,-277
638898,167
638941,504
638960,591
638983,630
639027,760
639045,940
639067,881
639111,612
639131,-807
639153,-1585
639197,-2024
639216,-2518
639237,-3083
639282,-3610
639301,-3214
639322,-2577
639466,-2122
639515,-951
639825,-1277
640001,-759
640090,-605
640138,-500
640150,69
640195,160
640214,-42
640235,56
640280,235
640299,217
640320,120
640365,143
640384,126
640405,20
640450,68
640469,578
640582,608
640670,761
640717,472
640740,209
640785,423
640802,525
640824,212
640869,9
640887,246
640909,227
640954,8
640972,-51
640995,184
641040,295
641058,39
641079,16
641124,48
641143,-304
641164,-492
641210,-458
641229,-161
641250,-149
641295,-79
641314,386
641335,419
641380,214
641419,-16
641464,26
641482,-333
641505,-243
641550,-14
641567,6
641590,-169
641733,-215
641782,-469
641828,-626
641839,-322
641884,-299
641903,-895
641925,-972
641970,-856
641987,-1055
642009,-1274
642054,-1183
642073,-487
642095,-468
642140,-682
642157,-764
642179,-613
642224,-638
642243,-1206
642265,-1353
642310,-1254
642328,-847
642349,-785
642395,-766
642414,-704
642435,-742
642480,-867
642497,-1109
642519,-1118
642563,-1093
642584,-1147
642605,-1176
642648,-1083
642687,-609
642692,-544
642735,-693
642753,-925
642866,-791
642950,-702
642996,-705
643003,-345
643024,-396
643068,-516
643088,-236
643110,75
643153,187
643173,-310
643195,-497
643238,-426
643258,-72
643280,-182
643323,-461
643343,-619
643365,-412
643408,-280
643429,-539
643450,-641
643493,-653
643514,-772
643535,-757
643579,-544
643599,-319
643621,-578
643664,-766
643685,-251
643706,-158
643749,-512
643768,-1066
643790,-793
643833,-514
643854,-783
643875,-944
644017,-894
644098,-350
644143,-105
644188,5
644209,-663
644252,-522
644273,-276
644294,-378
644338,-524
644357,-432
644378,-178
644422,68
644442,100
644463,-95
644507,-283
644528,-432
644549,-463
644593,-450
644613,-260
644635,-287
644678,-455
644697,-410
644719,-101
644762,55
644783,-467
644804,-625
644848,-476
644867,-140
644890,-269
644934,-421
644952,-227
644974,-101
645017,-174
645038,-549
645150,-439
645235,-60
645303,144
645349,-417
645394,-771
645438,-468
645455,-483
645493,-730
645537,-802
645542,-346
645562,-315
645605,-568
645624,-837
645647,-601
645691,-434
645709,-765
645731,-786
645774,-520
645795,-241
645816,-489
645859,-668
645880,-380
645901,-327
645945,-487
645965,-663
645986,-544
646029,-496
646050,-658
646071,-623
646115,-500
646135,-460
646157,-540
646298,-546
646345,252
646389,1256
646407,1381
646451,1440
646470,1769
646491,1740
646536,1350
646555,29
646578,-412
646622,-682
646641,-1611
646663,-2249
646707,-2631
646726,-2319
646764,-2015
646810,-1809
646831,-1099
646876,-790
646895,-401
646917,-356
646962,-347
646979,-234
647001,-147
647046,-92
647065,-25
647086,27
647131,104
647150,206
647171,139
647217,38
647235,206
647257,398
647302,421
647319,267
647431,518
647521,111
647569,150
647590,401
647636,576
647655,5
647676,-205
647722,-115
647739,303
647760,229
647806,15
647825,69
647846,392
647892,613
647909,486
647931,457
647976,555
647994,579
648015,479
648061,490
648080,583
648118,436
648164,294
648185,898
648231,880
648249,745
648270,995
648316,1259
648334,1191
648355,1090
648401,1071
648419,884
648440,761
648585,768
648636,744
648683,692
648690,624
648736,600
648754,676
648775,737
648821,704
648839,516
648860,613
648906,777
648924,590
648945,313
648991,208
649009,441
649030,407
649076,232
649094,92
649115,122
649161,115
649178,119
649201,81
649248,-65
649265,-193
649286,72
649332,331
649350,-16
649371,-267
649417,-195
649435,196
649456,-1
649535,-323
649541,-264
649588,-391
649603,-998
649718,-1020
649807,-1205
649855,-1006
649875,-894
649920,-792
649937,-1200
649959,-1296
650003,-1172
650023,-960
650044,-1044
650089,-1141
650107,-1097
650129,-1069
650174,-1155
650193,-1308
650214,-1138
650258,-871
650277,-723
650299,-859
650343,-943
650363,-707
650385,-549
650429,-503
650448,-689
650469,-679
650513,-535
650534,-339
650555,-425
650599,-487
650618,-383
650639,-417
650683,-487
650704,-345
650725,-300
650900,-473
650988,-510
651034,-305
651039,-254
651057,-325
651101,-411
651122,-488
651143,-483
651187,-431
651206,-316
651229,-337
651272,-371
651291,-284
651313,-293
651357,-385
651377,-495
651398,-444
651442,-405
651461,-354
651483,-248
651526,-185
651547,-543
651568,-772
651612,-817
651631,-623
651652,-712
651696,-899
651717,-940
651738,-701
651782,-420
651801,-233
651822,-374
651866,-505
651887,-255
651908,-106
652050,-188
652097,-339
652142,-161
652158,-459
652202,-471
652240,-1
652245,-50
652288,-340
652307,-444
652328,-174
652372,-47
652392,-454
652414,-585
652457,-486
652477,-295
652499,-442
652542,-641
652563,-681
652584,-571
652627,-479
652648,-328
652669,-265
652713,-261
652733,-279
652754,-252
652798,-301
652817,-653
652838,-753
652881,-807
652902,-1053
652923,-1029
652967,-781
652987,-358
653009,-461
653052,-583
653072,-402
653184,-245
653269,-1068
653314,-643
653323,-1005
653345,-829
653388,-590
653407,-371
653430,-402
653506,-579
653513,-435
653556,-55
653576,-630
653598,-1188
653641,-1276
653662,-485
653683,-363
653726,-454
653747,-161
653768,369
653812,992
653832,1729
653854,1645
653898,1444
653917,1551
653938,1610
653983,1325
654002,195
654023,-196
654068,-570
654087,-1685
654108,-2134
654153,-2378
654172,-2876
654193,-3060
654337,-2854
654386,-623
654433,197
654444,-601
654489,-795
654508,-309
654529,-226
654574,-407
654593,-530
654615,-293
654660,-137
654677,-256
654699,-213
654777,-82
654783,-210
654828,-138
654847,5
654868,-85
654914,-78
654931,190
654954,14
654999,-323
655017,-200
655038,161
655084,232
655103,-202
655124,-14
655169,404
655187,591
655208,450
655254,438
655273,319
655294,51
655339,-112
655357,65
655470,65
655559,490
655607,642
655628,-13
655674,161
655691,736
655713,669
655758,465
655776,602
655797,844
655843,872
655862,454
655883,439
655929,567
655947,500
655968,358
656013,366
656032,691
656131,727
656179,579
656227,672
656306,315
656355,896
656365,575
656387,474
656433,533
656450,512
656472,467
656616,542
656666,471
656713,41
656722,84
656768,252
656787,-229
656808,-440
656854,-421
656871,-371
656893,-462
656939,-523
656956,-479
656977,-453
657023,-438
657042,-683
657063,-978
657109,-1147
657126,-790
657148,-759
657194,-1063
657211,-1531
657232,-1166
657279,-689
657296,-750
657317,-1036
657364,-1026
657381,-482
657402,-545
657447,-822
657466,-908
657488,-651
657532,-502
657551,-803
657589,-935
657633,-811
657639,-77
657750,43
657837,243
657883,-357
657888,-42
657908,-187
657952,-282
657972,13
657994,-64
658037,-366
658056,-440
658078,-203
658122,-154
658142,-392
658163,-262
658207,-51
658226,-79
658249,-172
658293,-175
658312,-201
658333,-256
658377,-242
658398,-228
658419,-324
658463,-345
658482,31
658503,102
658547,-56
658567,-223
658589,-42
658632,69
658653,-184
658674,-170
658718,38
658737,282
658759,254
658902,327
658949,644
658994,57
659033,719
659077,-68
659093,218
659136,710
659157,106
659178,-292
659222,-186
659241,29
659262,-342
659306,-577
659327,-121
659348,-57
659392,-220
659411,-344
659433,-334
659477,-475
659497,-623
659519,-393
659563,-192
659582,-363
659603,-457
659648,-402
659667,-141
659688,-82
659732,-133
659752,-406
659774,-407
659818,-242
659837,26
659858,-63
659902,-180
659922,-220
660034,-222
660120,-218
660166,-210
660173,-395
660194,-405
660238,-270
660257,-61
660278,-48
660322,25
660360,232
660365,120
660409,-94
660427,-206
660449,-165
660492,-268
660513,-566
660534,-411
660578,-131
660598,-116
660620,-337
660663,-394
660682,-120
660703,-193
660747,-410
660767,-358
660789,-93
660832,8
660853,-240
660874,-101
660918,210
660938,131
660960,-200
661003,-257
661022,177
661044,-63
661185,-535
661233,-393
661278,592
661295,445
661339,801
661357,1857
661379,1917
661423,1857
661443,2380
661464,2645
661509,2517
661528,1551
661550,1115
661595,658
661634,-641
661680,-1742
661697,-2103
661718,-1964
661764,-1679
661783,-1108
661804,-788
661849,-308
661867,451
661890,301
661935,-59
661952,-386
661974,-391
662019,-470
662038,-640
662059,-606
662104,-538
662123,-206
662145,122
662190,356
662207,114
662319,-4
662407,7
662455,404
662461,-52
662479,-28
662524,151
662543,57
662564,-188
662610,-225
662627,343
662649,443
662695,274
662713,116
662735,349
662780,482
662798,-92
662819,-344
662865,-274
662884,-11
662905,-209
662983,-449
662990,76
663035,226
663052,-19
663073,-122
663119,-10
663138,465
663159,407
663205,99
663222,-196
663243,64
663289,322
663308,193
663329,40
663473,79
663522,486
663569,372
663579,281
663624,258
663642,447
663665,542
663711,501
663728,232
663749,308
663795,507
663812,421
663834,108
663880,-67
663897,159
663920,223
663966,132
663983,-60
664004,-56
664050,-29
664067,235
664090,418
664136,483
664153,55
664174,-190
664220,-274
664238,-100
664259,-73
664304,-169
664343,-242
664348,-48
664394,201
664408,297
664429,111
664475,-135
664494,-491
664607,-511
664696,-624
664743,-740
664764,-490
664810,-507
664827,-1202
664849,-1165
664893,-703
664912,-55
664934,-327
664978,-635
664997,-202
665018,176
665062,229
665083,-156
665104,-94
665148,109
665167,175
665188,115
665232,183
665253,444
665274,380
665318,249
665337,361
665359,539
665402,538
665423,-58
665444,-130
665488,144
665507,503
665528,177
665572,-140
665593,408
665614,787
665789,674
665876,-345
665922,-602
665928,-502
665947,-600
665991,-810
666012,-668
666033,-336
666077,-188
666096,-575
666117,-651
666161,-536
666181,-441
666203,-585
666247,-694
666266,-534
666287,-470
666331,-522
666352,-582
666373,-465
666417,-387
666436,-711
666457,-885
666501,-858
666522,-561
666543,-591
666588,-724
666606,-764
666628,-650
666672,-560
666691,-588
666712,-640
666757,-692
666777,-771
666798,-743
666941,-651
667045,-386
667093,-429
667138,-647
667216,-280
667262,-445
667277,-326
667298,-137
667342,-83
667362,-396
667384,-537
667428,-446
667447,185
667468,137
667512,-286
667533,-610
667554,-187
667598,76
667617,-608
667638,-706
667682,-305
667702,117
667724,-305
667767,-654
667787,-442
667809,-406
667852,-612
667873,-974
667894,-976
667937,-958
667958,-967
668070,-1018
668154,-245
668200,-558
668207,-712
668228,-1067
668272,-1180
668292,-561
668314,-496
668357,-767
668377,-941
668399,-556
668442,-249
668463,-592
668501,-807
668544,-760
668549,-565
668569,-724
668613,-877
668633,-690
668655,-579
668698,-582
668718,-366
668740,-14
668783,349
668803,825
668825,1053
668868,1337
668887,1860
668909,2003
668953,1978
668972,1163
668994,523
669038,26
669059,-586
669080,-1137
669223,-1864
669271,-1334
669318,-371
669329,-175
669374,-408
669393,-338
669414,-103
669459,-9
669478,-294
669500,-364
669545,-262
669564,-51
669585,-167
669630,-332
669649,-342
669670,-267
669715,-286
669733,-362
669771,-272
669816,-193
669822,-357
669840,-440
669885,-424
669904,-294
669925,-290
669970,-287
669989,-352
670011,-497
670056,-605
670073,-420
670094,-344
670139,-466
670158,-731
670180,-544
670224,-285
670243,-237
670357,-320
670443,-138
670490,-477
670496,-310
670515,-229
670560,-283
670579,-424
670600,-451
670645,-521
670664,-396
670685,-134
670730,-24
670748,-356
670771,-258
670816,81
670835,166
670856,-101
670901,-102
670920,530
670941,506
670986,251
671005,176
671162,305
671251,405
671298,166
671345,288
671359,-36
671502,106
671550,138
671597,-311
671608,-144
671652,-3
671671,172
671694,257
671739,284
671756,207
671779,100
671824,-138
671841,-557
671864,-473
671909,-353
671926,-643
671949,-738
671994,-579
672011,-298
672034,-442
672079,-554
672097,-425
672118,-494
672163,-656
672182,-579
672203,-404
672248,-353
672267,-495
672289,-457
672334,-347
672353,-267
672374,-311
672418,-358
672437,-480
672459,-555
672502,-598
672639,-479
672723,-659
672768,-857
672774,-812
672793,-604
672836,-435
672857,-602
672878,-639
672921,-457
672942,-237
672963,-434
673006,-624
673026,-569
673048,-545
673091,-602
673111,-505
673133,-362
673176,-326
673196,-363
673219,-233
673262,-75
673282,-140
673304,-281
673347,-308
673367,9
673388,91
673431,-12
673451,-292
673473,-192
673516,-79
673537,-513
673559,-807
673602,-817
673622,-356
673644,-296
673785,-322
673831,111
673875,-720
673894,-563
673937,-159
674217,-180
674345,-569
674429,-124
674475,-746
674519,-381
674537,-501
674558,-276
674601,-79
674622,-397
674643,-563
674686,-437
674707,-12
674728,-171
674771,-478
674791,-399
674903,-4
674987,-31
675031,174
675042,-180
675064,-45
675106,175
675127,200
675148,95
675191,104
675213,235
675234,93
675277,-72
675297,170
675319,252
675362,54
675382,-264
675403,-37
675446,137
675467,-252
675490,-339
675533,-200
675553,-232
675574,-459
675617,-519
675638,-281
675659,-343
675735,-497
675743,-712
675786,-656
675806,-315
675828,-383
675870,-623
675892,-447
675914,-2
676054,185
676100,-341
676144,-175
676163,324
676205,741
676227,1511
676248,1660
676291,1677
676312,1775
676333,1853
676377,1733
676397,618
676419,-84
676462,-620
676483,-1433
676504,-1989
676548,-2526
676567,-2744
676588,-2516
676633,-2359
676652,-2145
676674,-1835
676719,-1460
676738,-1146
676759,-1159
676804,-1117
676823,-891
676844,-837
676889,-779
676908,-457
676929,-233
677007,-45
677013,-126
677058,-232
677076,-150
677188,-104
677275,-478
677322,-239
677328,-55
677349,4
677394,-36
677412,-160
677434,-100
677478,-87
677497,-488
677519,-559
677563,-352
677582,-19
677604,-202
677648,-348
677667,-12
677767,105
677815,75
677861,-261
677906,18
677919,-339
677940,-317
677985,-10
678004,238
678025,-28
678070,-176
678088,220
678110,333
678154,262
678173,18
678195,-52
678338,-98
678386,-296
678432,504
678446,312
678490,206
678509,465
678531,518
678608,354
678615,-272
678660,-233
678678,-164
678700,-244
678745,-337
678762,-97
678785,150
678830,228
678849,-25
678870,16
678915,169
678934,21
678955,-196
679000,-264
679018,-419
679040,-717
679085,-893
679104,-516
679125,-515
679170,-793
679189,-814
679210,-415
679255,-198
679274,-581
679295,-632
679340,-459
679359,-361
679470,-587
679558,-942
679605,-856
679610,-856
679630,-1029
679675,-1061
679694,-974
679715,-1087
679760,-1133
679778,-826
679799,-877
679844,-1147
679883,-1239
679888,-956
679931,-770
679948,-906
679970,-991
680013,-1031
680033,-914
680055,-694
680098,-565
680118,-1103
680140,-1299
680183,-1101
680203,-543
680225,-653
680268,-777
680289,-411
680310,-286
680353,-381
680373,-530
680395,-539
680438,-632
680458,-760
680480,-703
680621,-698
680668,-564
680712,-413
680731,-886
680774,-745
680795,-115
680816,-327
680859,-560
680879,242
680901,532
680944,241
680964,-364
680986,-130
681029,-38
681049,-839
681070,-985
681146,-753
681154,-731
681198,-940
681218,-771
681239,-582
681283,-510
681303,-815
681325,-895
681368,-735
681388,-331
681410,-417
681453,-552
681473,-568
681495,-602
681538,-684
681558,-419
681580,-229
681623,-306
681643,-693
681755,-438
681840,-731
681885,-489
681894,-597
681916,-459
681959,-375
681980,-502
682001,-461
682045,-294
682064,-156
682085,-313
682128,-453
682149,-280
682170,-114
682214,-83
682234,-314
682256,-344
682299,-287
682320,-172
682341,-100
682384,-1
682423,-155
682428,-419
682471,-487
682490,304
682511,504
682555,196
682575,-570
682596,-315
682640,94
682660,-77
682681,-423
682724,-529
682745,-148
682766,8
682907,51
682953,68
682998,-240
683017,-25
683059,-82
683080,85
683101,350
683144,442
683165,170
683186,193
683229,289
683249,51
683271,-112
683314,-107
683334,-118
683356,-313
683399,-427
683419,-73
683442,113
683485,179
683506,320
683527,518
683570,763
683589,1245
683611,1438
683655,1583
683675,1974
683713,2229
683758,2344
683764,1835
683782,1467
683827,1160
683845,137
683868,-678
683913,-1375
683930,-1803
684042,-1875
684130,-421
684178,-114
684183,61
684202,-81
684247,-172
684266,-183
684287,-300
684332,-356
684350,148
684373,288
684418,87
684435,-199
684458,149
684503,520
684521,438
684542,316
684587,402
684606,567
684627,425
684673,286
684690,141
684712,22
684757,-43
684776,242
684797,382
684843,377
684861,307
684883,284
684928,181
684945,9
684968,104
685014,180
685052,-39
685197,48
685246,65
685292,-82
685301,369
685347,152
685365,-380
685387,-165
685432,149
685451,111
685472,41
685518,163
685535,254
685556,123
685602,204
685621,853
685642,700
685687,222
685706,135
685728,557
685773,690
685790,41
685812,-30
685857,190
685876,518
685897,526
685942,541
685961,455
685983,414
686028,481
686045,515
686067,300
686112,98
686131,128
686152,122
686197,-1
686216,6
686331,98
686420,527
686467,-220
686487,-196
686532,-676
686551,-287
686589,-42
686634,-251
686655,-390
686701,-146
686719,-471
686741,-484
686786,-245
686805,-191
686827,-443
686872,-528
686889,-245
686911,-295
686957,-465
686975,-477
686996,-402
687041,-426
687060,-537
687082,-477
687127,-446
687145,-716
687166,-760
687212,-571
687229,-68
687252,-126
687297,-359
687314,-574
687336,-486
687478,-489
687525,-444
687571,-565
687586,-369
687630,-493
687651,-505
687672,-331
687716,-265
687734,-370
687756,-308
687799,-257
687820,-434
687858,-416
687901,-283
687907,-310
687927,-365
687970,-220
687990,99
688012,-84
688055,-293
688076,-43
688097,115
688140,13
688161,-435
688182,-362
688225,-130
688246,-81
688267,-361
688311,-532
688331,-131
688352,-29
688396,-235
688416,-567
688438,-335
688481,-136
688500,-419
688669,-466
688715,-291
688800,-167
688846,-283
688854,-366
688897,-318
688918,-449
688939,-526
688983,-540
689003,-403
689025,-313
689068,-291
689087,-432
689109,-347
689152,-157
689173,-141
689194,-330
689271,-417
689279,-282
689323,-353
689342,-435
689363,-479
689407,-497
689427,-328
689449,-362
689493,-578
689513,-701
689534,-478
689578,-340
689597,-531
689618,-522
689761,-397
689808,-767
689853,-472
689868,-684
689912,-820
689933,-137
689954,77
689997,-198
690017,-956
690038,-844
690081,-654
690102,-913
690123,-1037
690167,-939
690188,-719
690209,-737
690252,-668
690271,-482
690294,-725
690338,-1060
690357,-876
690378,-493
690421,-403
690442,-1047
690463,-1089
690540,-816
690548,-955
690591,-1155
690612,-801
690633,-638
690676,-624
690697,-567
690718,-535
690761,-644
690782,-966
690893,-931
690978,-470
691023,957
691032,1196
691054,1126
691098,1204
691117,1549
691138,1259
691183,645
691202,-472
691223,-931
691268,-1515
691287,-2615
691308,-2876
691353,-3025
691372,-3018
691394,-2647
691440,-2141
691457,-1511
691479,-1317
691525,-1061
691542,-733
691563,-713
691609,-649
691627,-569
691648,-692
691694,-743
691713,-416
691750,-463
691796,-766
691818,-710
691863,-437
691881,-636
691902,-769
692046,-656
692095,-849
692142,-323
692153,-435
692198,-658
692217,-250
692238,50
692283,-103
692301,-951
692324,-708
692369,-137
692386,-103
692408,-491
692453,-487
692472,255
692493,148
692539,-241
692556,-437
692579,-300
692625,-297
692642,-235
692663,16
692709,167
692726,-227
692749,-345
692794,-210
692812,-62
692833,-299
692879,-495
692898,-292
692919,-120
692964,-49
692982,-76
693003,-107
693048,-181
693185,-288
693275,-295
693323,-154
693337,-390
693382,-108
693401,195
693422,-84
693468,-343
693485,10
693506,252
693552,186
693570,-379
693592,-334
693637,-53
693656,216
693677,17
693723,-204
693740,-243
693761,-225
693807,-290
693826,-373
693847,-342
693892,-326
693911,-202
693932,-66
693978,-24
693995,-54
694018,122
694063,255
694080,-487
694102,-885
694147,-817
694166,-448
694187,-825
694331,-1228
694380,-758
694428,-1037
694437,-793
694483,-727
694500,-1061
694538,-953
694584,-647
694590,-497
694608,-544
694654,-418
694671,-231
694692,-453
694736,-693
694757,-800
694778,-838
694821,-869
694842,-686
694863,-614
694907,-644
694927,-495
694948,-248
694992,-141
695011,-723
695034,-987
695077,-937
695096,-490
695119,-575
695162,-786
695181,-635
695203,-328
695246,-214
695266,-514
695288,-507
695331,-347
695352,-254
695465,-267
695550,-394
695595,-464
695601,-445
695624,55
695667,306
695686,-504
695708,-716
695751,-465
695772,-185
695809,-535
695853,-765
695858,-203
695878,87
695921,136
695942,46
695963,53
696006,24
696027,-48
696048,-24
696091,5
696113,125
696134,217
696177,204
696198,-31
696219,108
696262,401
696283,150
696304,-294
696347,-370
696367,457
696389,441
696432,14
696452,-357
696474,-133
696615,-58
696662,-160
696706,324
696724,443
696767,350
696787,216
696809,149
696852,53
696872,-39
696895,-15
696938,-17
696958,-81
696980,43
697022,329
697043,628
697064,484
697108,307
697146,237
697151,165
697194,39
697213,130
697234,262
697277,185
697298,-241
697319,-97
697362,203
697383,-130
697404,-658
697447,-801
697468,187
697489,329
697532,-58
697553,-546
697574,-174
697617,141
697638,-285
697749,-551
697833,-469
697878,-911
697889,-641
697910,-678
697953,-836
697974,-872
697995,-787
698038,-798
698059,-942
698080,-881
698123,-753
698144,-735
698165,-829
698208,-771
698228,173
698250,649
698293,785
698313,623
698335,850
698379,1223
698399,1359
698437,967
698481,450
698487,-230
698505,-288
698549,-437
698568,-1788
698590,-2478
698634,-2633
698655,-2266
698676,-2503
698721,-2751
698739,-1863
698760,-1267
698904,-1145
698953,-658
699000,-710
699010,-714
699056,-1006
699075,-618
699096,-264
699141,-220
699160,-454
699181,-362
699226,-310
699244,-625
699265,-591
699310,-376
699329,-560
699429,-857
699477,211
699523,-434
699569,258
699580,-409
699601,-597
699646,-397
699665,32
699688,-133
699733,-332
699750,-144
699788,20
699833,-9
699838,-351
699858,-361
699903,-284
699920,-310
700034,-385
700122,-577
700169,-415
700174,-589
700192,-365
700237,-106
700256,-77
700278,-127
700323,-67
700341,-60
700363,-227
700408,-314
700427,-106
700448,-156
700493,-395
700512,-597
700533,-356
700578,-98
700596,-87
700618,-213
700664,-264
700681,-6
700702,146
700747,146
700766,-131
700788,-97
700833,64
700851,59
700873,-129
700918,-207
700937,-31
700958,-92
701003,-244
701022,-121
701044,118
701220,210
701311,-146
701359,-389
701375,-453
701420,-431
701439,-734
701461,-699
701506,-425
701523,-176
701545,-470
701590,-737
701609,-381
701630,-106
701676,-111
701694,-550
701716,-534
701761,-326
701780,-137
701801,-295
701846,-467
701864,-617
701886,-733
701931,-895
701949,-1032
701971,-1027
702016,-1101
702035,-1260
702056,-1178
702100,-1103
702119,-1278
702140,-1269
702184,-1082
702204,-820
702226,-918
702368,-1000
702414,-941
702459,-1028
702476,-798
702519,-716
702558,-863
702563,-913
702605,-929
702624,-1012
702646,-1053
702689,-1107
702709,-1475
702731,-1621
702774,-1510
702795,-976
702816,-1057
702859,-1303
702880,-1201
702901,-940
702945,-912
702965,-1134
702987,-998
703030,-894
703050,-1302
703072,-1384
703115,-1169
703134,-922
703157,-1081
703201,-1090
703220,-560
703241,-531
703284,-742
703305,-975
703326,-867
703370,-796
703390,-1113
703502,-1368
703586,-899
703632,-896
703641,-1000
703662,-1015
703706,-941
703726,-1019
703764,-1165
703808,-1166
703814,-939
703832,-1058
703875,-1271
703896,-1190
703917,-944
703961,-802
703981,-883
704003,-832
704046,-649
704066,-388
704088,-484
704131,-659
704152,-691
704173,-514
704216,-425
704235,-833
704258,-990
704302,-889
704320,-557
704342,-691
704385,-880
704406,-751
704427,-608
704470,-636
704491,-810
704512,-702
704654,-573
704701,-635
704745,-1177
704763,-867
704806,-994
704827,-1297
704848,-1068
704892,-750
704912,-674
704934,-800
705010,-793
705018,-575
705061,-735
705081,-817
705102,-667
705145,-591
705166,-949
705187,-1028
705230,-852
705250,-457
705272,-573
705315,-772
705335,-897
705357,-928
705399,-1023
705404,-1080
705423,-975
705444,-746
705487,-562
705507,-438
705529,-194
705572,273
705592,1063
705614,1116
705657,1075
705678,1374
705788,1625
705875,415
705922,-1310
705928,-2529
705949,-2723
705994,-2537
706012,-2053
706035,-1978
706080,-1779
706098,-953
706119,-778
706164,-858
706182,-872
706472,-629
706647,-378
706737,-253
706785,4
706930,-418
706979,-524
707025,-236
707032,37
707078,-275
707095,-437
707116,-182
707162,14
707180,126
707202,242
707247,318
707266,198
707287,255
707332,450
707351,500
707373,263
707418,109
707435,302
707457,375
707502,293
707521,122
707542,208
707587,329
707606,327
707628,211
707673,129
707690,239
707712,364
707757,480
707776,595
707797,661
707843,787
707861,1045
707883,992
707928,828
707946,730
708064,878
708153,771
708235,1117
708283,1047
708301,751
708347,691
708364,480
708385,249
708432,44
708449,16
708470,66
708516,39
708533,-19
708555,83
708601,139
708618,-238
708640,-426
708686,-390
708705,-345
708724,-751
708771,-1188
708788,-776
708810,-315
708856,-304
708875,-897
708896,-622
708942,-113
708959,-144
708981,-489
709027,-577
709044,-510
709065,-771
709210,-1034
709259,-1022
709307,-766
709316,-651
709361,-558
709379,-779
709400,-771
709445,-489
709464,-153
709485,-445
709530,-643
709569,6
709573,125
709618,-242
709634,-647
709655,-192
709700,153
709719,-344
709740,-446
709785,-177
709804,139
709827,-32
709871,-114
709890,38
709911,4
709956,-75
709975,-11
709996,-3
710040,-83
710059,-131
710081,-41
710125,31
710145,19
710342,1
710471,181
710519,317
710565,373
710581,47
710625,382
710644,554
710666,102
710710,-213
710729,291
710750,467
710795,301
710814,67
710835,249
710880,339
710899,122
710920,129
710965,205
710984,68
711005,-23
711049,36
711088,353
711093,407
711137,310
711155,-171
711176,-214
711221,27
711239,356
711261,57
711305,-275
711324,-206
711346,-142
711488,-267
711536,-276
711582,-83
711596,-392
711640,-203
711659,-474
711681,-837
711725,-928
711744,-727
711767,-818
711812,-862
711829,-482
711852,-363
711897,-409
711916,-468
711937,-436
711982,-464
711999,-683
712022,-857
712067,-993
712084,-847
712107,-812
712152,-1028
712169,-1369
712191,-1036
712236,-647
712255,-722
712276,-817
712321,-667
712360,-562
712364,-827
712409,-982
712425,-692
712446,-670
712491,-816
712510,-832
712623,-562
712710,-568
712756,-592
712762,-598
712782,-230
712826,84
712845,433
712867,773
712912,1207
712931,1669
712952,1645
712998,1588
713015,1543
713037,1404
713083,1061
713101,-208
713122,-812
713169,-1231
713186,-1950
713208,-2410
713254,-2737
713272,-2458
713293,-2103
713340,-1826
713356,-1238
713377,-826
713423,-483
713441,-316
713462,-353
713509,-333
713526,-184
713548,-171
713627,-204
713634,36
713779,140
713831,486
713880,792
713885,818
713933,568
713946,267
713967,261
714015,202
714031,118
714052,208
714100,301
714116,563
714137,904
714185,1178
714201,659
714222,306
714271,332
714286,710
714308,534
714356,299
714370,421
714392,569
714440,666
714455,934
714477,929
714525,712
714541,520
714562,765
714611,972
714627,790
714648,663
714696,647
714711,775
714732,873
714780,944
714796,621
714913,398
715007,829
715058,918
715067,838
715149,1122
715155,973
715204,1221
715214,1283
715236,964
715284,912
715300,1543
715322,1445
715370,1090
715385,1140
715406,1424
715455,1474
715469,1210
715490,1190
715539,1121
715555,890
715576,1012
715625,1160
715639,826
715661,692
715709,899
715725,1376
715747,1128
715795,749
715809,598
715831,653
715879,539
715895,99
715916,35
716063,44
716116,-193
716165,-114
716215,-364
716229,-814
716250,-730
716299,-561
716314,-520
716336,-570
716383,-531
716399,-322
716420,-325
716621,-392
716716,-73
716765,-285
716812,-239
716818,-878
716837,-558
716883,-159
716901,-413
716922,-696
716968,-678
716985,-259
717007,-294
717053,-460
717071,-480
717188,-312
717277,-594
717325,-645
717341,-458
717387,-425
717405,-591
717427,-520
717472,-355
717489,-288
717511,-361
717556,-323
717575,-57
717596,-81
717642,-169
717661,-239
717682,-299
717727,-387
717745,-301
717766,-195
717811,-219
717830,-380
717852,-333
717897,-342
717916,-648
717937,-650
718016,-517
718022,-592
718068,-530
718085,-239
718106,-273
718152,-331
718169,-150
718190,-76
718334,-136
718383,-328
718430,-174
718441,-175
718486,-188
718505,68
718527,226
718572,275
718589,266
718611,343
718656,434
718675,503
718697,503
718742,471
718760,184
718781,69
718826,115
718845,374
718867,306
718912,120
718930,42
718951,240
718996,386
719015,107
719037,-87
719082,-124
719100,-24
719121,-121
719166,-224
719185,-123
719207,-141
719252,-322
719271,-460
719292,-292
719469,-228
719558,64
719605,-99
719624,-120
719668,-327
719688,-309
719709,-135
719754,-73
719773,-163
719794,-112
719839,-46
719858,-180
719879,-419
719924,-664
719943,-715
719964,-538
720009,-475
720028,-665
720049,-370
720094,298
720113,1231
720134,1183
720180,1211
720197,2032
720219,2293
720265,2219
720283,1669
720304,1300
720351,808
720368,-249
720389,-687
720436,-1186
720453,-2292
720475,-2530
720620,-2466
720671,-767
720719,-211
720725,-339
720772,-393
720811,-279
720859,-335
720873,-142
720894,-157
720941,-349
720957,-394
721057,-70
721107,-288
721155,140
721204,2
721209,599
721230,692
721278,557
721293,603
721315,938
721362,1192
721379,932
721401,714
721448,701
721464,1110
721485,1165
721533,1017
721549,809
721570,1031
721618,1310
721634,1295
721749,1165
721843,1057
721894,1375
721905,1286
721954,1584
721968,1341
721989,959
722038,921
722053,1428
722075,1303
722123,1028
722137,1406
722159,1851
722207,2000
722223,1756
722261,1806
722310,1903
722329,1785
722378,1739
722392,1384
722414,1317
722462,1444
722478,1460
722500,1223
722548,1147
722562,1484
722584,1386
722632,1156
722648,1509
722670,1847
722718,1786
722732,1177
722754,1310
722901,1568
722954,1349
723004,1261
723054,1096
723066,801
723088,738
723136,550
723152,227
723173,328
723221,445
723237,315
723258,374
723307,636
723322,842
723344,568
723392,331
723406,559
723429,674
723477,520
723491,-26
723514,69
723562,353
723578,365
723616,44
723663,-113
723683,638
723730,487
723746,-142
723769,-146
723816,28
723831,138
723853,-4
723899,-116
723916,63
724033,254
724123,-188
724171,-451
724187,268
724233,357
724250,337
724273,559
724318,707
724336,225
724357,20
724402,77
724421,198
724443,84
724488,108
724506,509
724528,562
724573,619
724590,1172
724611,1244
724656,991
724675,744
724697,1019
724742,1136
724761,550
724782,460
724827,635
724846,597
724867,445
724912,552
724931,1043
724952,902
725030,617
725037,822
725180,814
725228,780
725274,449
725287,697
725332,924
725350,614
725372,481
725417,660
725436,1088
725457,991
725502,924
725521,1301
725542,1268
725587,939
725606,841
725627,1204
725672,1301
725690,500
725711,462
725756,835
725775,1096
725796,805
725841,697
725860,1017
725882,964
725927,875
725945,1356
725967,1554
726012,1419
726031,948
726052,1010
726097,1145
726116,1053
726138,873
726183,705
726200,614
726313,763
726402,280
726449,-10
726454,29
726492,241
726538,288
726557,100
726603,313
726620,448
726641,301
726686,127
726705,1
726726,120
726771,290
726790,255
726811,61
726856,-46
726875,163
726896,283
726941,356
726960,459
726983,476
727027,496
727046,713
727067,687
727112,432
727131,-20
727152,87
727196,223
727215,141
727236,238
727281,610
727300,1455
727323,1630
727466,1705
727515,2246
727563,687
727572,282
727618,-397
727635,-2149
727657,-2257
727703,-1876
727720,-1548
727742,-1606
727788,-1319
727827,-179
727873,19
727890,316
727912,322
727958,71
727975,34
727996,401
728043,570
728060,-14
728081,-126
728128,50
728145,104
728166,-140
728212,-244
728230,111
728251,163
728297,41
728315,28
728337,210
728384,291
728401,-139
728422,-342
728468,-359
728486,-74
728599,-49
728689,254
728738,106
728756,-288
728802,-187
728819,28
728841,-89
728887,-221
728904,-13
728927,187
728973,244
728990,-25
729012,-179
729058,-278
729075,-320
729097,-243
729143,-139
729160,-156
729198,-268
729244,-272
729265,272
729311,213
729329,7
729350,60
729396,159
729413,223
729435,210
729481,173
729500,110
729521,76
729567,31
729584,70
729606,253
729750,374
729800,959
729848,312
729857,647
729903,496
729920,475
729941,665
729988,601
730005,-42
730026,8
730072,277
730090,347
730111,175
730157,127
730175,154
730196,46
730242,-15
730259,102
730281,-57
730327,-356
730345,-326
730367,106
730413,364
730429,-218
730450,-539
730497,-488
730514,-1
730537,-209
730616,-701
730622,-962
730669,-746
730684,-736
730706,-729
730752,-642
730769,-523
730883,-476
730974,-728
731022,-557
731040,-460
731086,-321
731104,-350
731125,-259
731171,-141
731188,-499
731210,-804
731254,-807
731273,-323
731294,-458
731338,-767
731359,-606
731380,-191
731424,41
731443,-228
731465,-474
731508,-650
731529,-517
731550,-292
731594,-260
731613,-860
731634,-933
731678,-628
731699,116
731720,102
731763,-140
731783,-620
731882,-565
732026,-356
732113,-282
732192,-322
732238,-316
732283,-105
732302,-351
732346,-349
732367,-565
732388,-733
732432,-818
732451,-573
732472,-378
732516,-354
732537,-721
732558,-641
732603,-292
732621,83
732643,-79
732687,-164
732706,49
732727,0
732771,-104
732791,-37
732813,-173
732857,-509
732876,-586
732899,-335
732943,-375
732962,-1048
732983,-865
733028,-332
733047,32
733156,-201
733243,154
733290,164
733297,136
733318,50
733363,17
733381,190
733403,238
733447,215
733467,155
733489,142
733566,67
733572,-74
733616,17
733636,8
733658,-80
733702,-117
733720,-55
733742,-103
733786,-216
733806,-283
733828,-204
733872,-236
733891,-749
733912,-871
733956,-732
733976,-391
733998,-481
734042,-638
734061,-569
734082,-381
734126,-226
734146,-331
734168,-567
734310,-736
734357,-768
734402,-384
734418,572
734461,1049
734482,1013
734503,1048
734547,1538
734566,2398
734587,2028
734632,1437
734652,948
734673,681
734718,47
734737,-1512
734758,-2016
734802,-2392
734841,-2695
734846,-2495
734892,-2167
734906,-1604
734927,-1315
734973,-999
734992,-597
735014,-521
735059,-477
735077,-369
735098,-172
735144,157
735161,398
735183,147
735228,-5
735247,507
735268,612
735314,369
735331,158
735444,534
735534,251
735582,-222
735603,-217
735649,-145
735666,175
735687,204
735733,31
735752,-407
735773,-374
735819,-197
735837,70
735858,69
735904,34
735921,78
735944,175
735990,235
736007,-39
736028,-210
736074,-210
736091,100
736113,136
736191,71
736198,100
736244,58
736261,-158
736282,-126
736328,8
736345,134
736367,42
736413,-21
736431,217
736453,373
736597,396
736647,331
736694,156
736703,378
736749,238
736766,-127
736787,75
736833,339
736851,37
736872,-180
736918,-21
736937,496
736958,210
737004,-172
737021,131
737043,461
737089,488
737106,186
737127,267
737173,393
737192,360
737213,350
737259,378
737276,297
737297,259
737343,351
737362,670
737383,634
737428,457
737447,240
737468,270
737514,276
737552,-12
737598,-150
737615,-36
737730,-154
737819,281
737866,-234
737886,347
737931,-283
737950,-649
737972,-112
738017,259
738035,-424
738056,-683
738102,-425
738119,297
738142,176
738188,-42
738205,-65
738226,-34
738272,-70
738291,-60
738312,-9
738357,-16
738374,-158
738396,-246
738440,-307
738460,-109
738482,22
738525,-70
738546,-464
738567,-242
738611,82
738629,-168
738651,-418
738694,-285
738715,439
738736,448
738878,332
738925,472
738970,52
738987,187
739031,347
739332,156
739500,518
739587,-232
739633,123
739649,-189
739692,-52
739713,467
739734,563
739778,426
739798,98
739820,329
739863,640
739884,224
739995,-320
740080,-547
740126,-236
740134,-438
740155,-477
740199,-533
740218,-781
740239,-725
740283,-505
740304,-345
740325,-525
740369,-603
740388,-134
740409,-52
740453,-277
740474,-731
740495,-607
740539,-470
740558,-750
740579,-871
740624,-814
740643,-830
740666,-1026
740710,-1118
740729,-911
740750,-908
740795,-1007
740833,-957
740838,-826
740883,-734
740899,-641
740920,-687
740964,-855
740983,-994
741005,-807
741148,-682
741196,-805
741241,-870
741256,-731
741301,-659
741319,-861
741340,-1050
741384,-1116
741403,-854
741425,-687
741469,-454
741489,317
741511,660
741555,919
741573,1396
741595,1563
741640,1613
741659,1493
741680,1294
741725,898
741744,-71
741766,-410
741811,-785
741830,-1978
741851,-2415
741896,-2521
741914,-2385
741935,-2361
741982,-2201
741999,-1409
742020,-1094
742100,-929
742106,-365
742152,-289
742168,-507
742281,-474
742372,-51
742420,609
742440,528
742486,396
742503,392
742525,452
742571,346
742588,106
742687,378
742735,757
742784,697
742832,450
742839,349
742861,269
742908,182
742923,180
742946,137
742993,39
743009,-20
743031,18
743078,6
743094,-38
743116,26
743163,99
743179,40
743201,-76
743248,-194
743264,-315
743285,-295
743430,-224
743480,535
743528,632
743535,475
743582,437
743599,425
743620,399
743667,426
743706,715
743753,520
743768,295
743789,498
743836,675
743853,355
743875,229
743921,401
743937,807
743960,675
744007,579
744022,1035
744044,1005
744091,547
744108,40
744129,444
744176,767
744193,216
744215,69
744261,337
744278,657
744300,450
744347,355
744362,432
744384,173
744430,-86
744448,174
744562,209
744654,8
744702,-219
744719,-584
744765,-636
744783,-241
744804,-155
744851,-299
744868,-588
744888,-345
744935,7
744952,-104
744975,-394
745021,-423
745037,-11
745058,-92
745138,-304
745144,-166
745191,-179
745206,-230
745228,-206
745274,-281
745292,-400
745313,-247
745360,-139
745377,-454
745398,-476
745445,-269
745462,-227
745484,-521
745529,-671
745547,-357
745568,-328
745711,-433
745760,-69
745806,-176
745818,5
745863,91
745881,-22
745903,69
745947,235
745968,23
745989,-165
746033,-99
746052,158
746073,-110
746117,-441
746138,-260
746159,7
746203,39
746222,-272
746243,-209
746287,-38
746308,49
746329,-5
746373,16
746393,-20
746431,-188
746475,-288
746481,138
746499,217
746543,-93
746563,-679
746584,-320
746628,157
746647,-248
746669,-792
746713,-899
746733,-94
746845,-79
746931,-326
746978,-304
746983,265
747005,331
747049,98
747068,-290
747089,-123
747133,109
747152,98
747175,-1
747219,64
747238,601
747259,740
747303,676
747322,326
747344,284
747388,337
747408,362
747430,242
747474,64
747493,6
747514,214
747558,383
747579,65
747600,-123
747644,-50
747663,386
747684,389
747728,320
747767,400
747772,421
747816,364
747833,333
747855,272
747997,56
748045,-68
748091,121
748105,207
748149,108
748168,136
748189,72
748234,-94
748254,-77
748275,132
748320,216
748339,-228
748360,-380
748404,-284
748423,15
748444,-119
748488,-310
748509,69
748530,565
748574,937
748593,1224
748615,1399
748659,1598
748678,1787
748700,1822
748745,1781
748764,967
748786,321
748831,-208
748848,-1066
748870,-1651
748915,-2227
748934,-2748
748956,-2798
749002,-2808
749019,-2249
749156,-1710
749249,-282
749298,-400
749346,-15
749352,184
749375,42
749421,-137
749437,-165
749458,42
749505,262
749522,178
749543,16
749590,61
749607,546
749629,566
749675,440
749693,383
749714,440
749761,455
749778,519
749799,457
749846,262
749862,221
749885,521
749931,612
749947,-153
749968,-148
750015,313
750032,513
750054,45
750100,-110
750118,759
750139,848
750186,575
750290,532
750339,668
750387,918
750393,497
750440,650
750454,985
750475,773
750522,514
750539,536
750577,603
750624,538
750645,493
750692,598
750708,529
750729,343
750776,171
750793,361
750815,524
750862,383
750877,-289
750900,-85
750947,389
750963,246
750984,-255
751031,-343
751048,543
751070,633
751117,401
751134,283
751155,441
751202,529
751218,638
751239,669
751286,531
751304,110
751422,171
751514,177
751564,364
751575,120
751622,94
751637,161
751659,144
751706,67
751723,-28
751744,-16
751791,-43
751808,-403
751830,-524
751877,-453
751893,-271
751914,-403
751994,-537
752000,-136
752047,-202
752062,-375
752083,-365
752130,-440
752148,-538
752169,-275
752216,-35
752231,-566
752253,-805
752299,-528
752316,215
752338,-139
752384,-638
752403,-231
752424,225
752569,194
752619,-317
752665,-154
752674,-53
752719,-297
752738,-653
752759,-579
752804,-375
752823,-264
752844,-527
752889,-757
752908,-477
752930,-270
752974,-287
752993,-619
753014,-708
753059,-839
753078,-1025
753099,-812
753143,-567
753162,-912
753184,-1211
753261,-1162
753268,-729
753312,-1017
753331,-914
753354,-619
753398,-503
753417,-772
753517,-807
753564,-892
753709,-1255
753797,-436
753844,-1080
753853,-1119
753898,-923
753917,-752
753938,-790
753982,-750
754003,-368
754024,-233
754068,-252
754087,-597
754109,-704
754153,-697
754172,-740
754193,-864
754237,-887
754258,-498
754279,-496
754324,-742
754343,-803
754364,-444
754408,-229
754427,-594
754449,-552
754493,-234
754512,-136
754533,-497
754578,-712
754598,-435
754636,-477
754681,-771
754686,-1019
754704,-743
754848,-509
754895,-116
754941,-964
754955,-326
754999,-308
755018,-908
755039,-922
755083,-731
755102,-658
755123,-763
755168,-765
755187,-738
755208,-803
755252,-768
755273,-333
755294,-313
755338,-539
755357,-913
755379,-845
755423,-712
755442,-693
755463,-819
755507,-937
755527,-661
755549,-367
755593,-226
755611,-292
755634,-102
755678,233
755697,475
755718,609
755762,1108
755783,2149
755804,1877
755849,1282
755868,910
756004,860
756093,-2397
756141,-1835
756189,-706
756201,-98
756222,35
756268,173
756285,371
756307,284
756353,311
756370,858
756393,725
756439,208
756457,66
756478,561
756524,669
756541,-125
756563,109
756609,721
756626,645
756648,184
756694,203
756712,870
756733,556
756779,-23
756797,-158
756818,192
756864,372
756882,-18
756903,-210
756949,-161
756966,405
756988,413
757034,107
757138,-227
757188,-355
757235,-68
757241,25
757287,-164
757302,-207
757324,-159
757370,-180
757409,-232
757456,-312
757471,-421
757493,-244
757539,-50
757556,-264
757578,-445
757624,-381
757641,80
757662,-23
757709,-346
757726,-459
757747,-112
757793,173
757812,-75
757833,-215
757880,-66
757897,406
757918,314
757964,129
757982,195
758003,295
758049,208
758066,-17
758088,183
758134,421
758151,146
758271,-125
758361,106
758410,330
758422,241
758468,500
758486,790
758507,676
758553,591
758571,667
758592,621
758638,468
758656,138
758677,-25
758723,-210
758762,-340
758808,-267
758826,-403
758847,-270
758894,-55
758909,-96
758932,-307
758979,-393
758996,-310
759017,-453
759064,-681
759081,-804
759101,-694
759148,-609
759165,-880
759186,-1121
759233,-1169
759251,-456
759272,-230
759417,-387
759468,-488
759516,-50
759522,-790
759569,-1298
759586,-737
759608,-413
759654,-583
759671,-1037
759693,-711
759738,-309
759755,-221
759776,-310
759822,-312
759841,-328
759862,-308
759907,-194
759926,-98
759947,-217
759992,-281
760011,-47
760049,-21
760094,-115
760099,-4
760117,209
760162,247
760181,-121
760202,-51
760246,208
760265,51
760288,-378
760332,-617
760351,-502
760373,-649
760417,-911
760436,-789
760551,-595
760638,174
760685,-184
760706,-265
760751,-471
760770,-95
760791,-39
760836,-183
760855,-133
760876,78
760921,175
760940,78
760962,154
761007,333
761026,680
761047,693
761092,541
761111,120
761132,158
761177,297
761196,205
761217,20
761262,-7
761281,437
761302,605
761347,605
761366,298
761403,199
761448,248
761454,494
761472,474
761516,421
761535,640
761557,706
761700,589
761748,47
761793,199
761807,472
761852,358
761871,26
761892,38
761936,105
761955,-88
761978,-315
762023,-448
762041,-293
762063,-180
762108,-175
762126,-341
762148,-332
762193,-237
762211,-102
762233,-154
762278,-229
762297,-250
762318,-162
762363,-24
762382,113
762403,32
762447,-61
762466,69
762487,145
762532,75
762551,-246
762572,-191
762617,32
762637,421
762658,444
762703,449
762840,826
762929,2050
762978,1052
762991,3
763037,-384
763055,-1294
763077,-1732
763123,-1871
763140,-1417
763162,-1263
763208,-1228
763224,-756
763247,-285
763293,87
763310,221
763332,163
763378,146
763395,200
763417,149
763463,-6
763480,-280
763502,-224
763548,-53
763565,296
763587,351
763633,324
763650,245
763672,261
763718,273
763736,212
763757,228
763804,311
763820,478
763841,538
763987,622
764038,435
764086,304
764092,364
764139,316
764155,255
764176,334
764375,426
764527,-99
764620,161
764670,289
764676,664
764723,881
764737,412
764759,147
764806,84
764823,82
764844,50
764891,108
764907,256
764928,153
764975,43
764993,188
765107,309
765200,157
765250,607
765264,557
765310,692
765326,772
765349,703
765396,683
765412,692
765434,613
765481,552
765496,721
765518,739
765565,546
765582,83
765604,193
765651,457
765667,473
765688,249
765735,191
765752,505
765774,397
765821,117
765837,144
765858,325
765905,140
765922,-810
765960,-726
766007,-269
766028,-444
766075,-581
766091,-24
766112,66
766258,-143
766308,-637
766356,-771
766364,-401
766410,-233
766426,-144
766448,-175
766494,-188
766511,-131
766533,-190
766579,-353
766597,-395
766618,-117
766664,107
766682,-242
766703,-483
766749,-452
766766,-106
766789,-226
766834,-480
766852,-533
766873,-327
766918,-198
766937,-247
766959,-211
767004,-110
767022,-98
767044,-142
767088,-96
767107,-61
767128,-236
767172,-373
767193,-46
767214,127
767390,113
767478,156
767524,-198
767546,27
767590,-289
767610,-223
767631,-34
767675,-48
767694,-286
767716,-217
767760,-131
767779,-286
767802,-281
767846,-103
767864,49
767886,-198
767930,-420
767950,-57
767972,237
768016,276
768034,-200
768056,-293
768100,-240
768120,-407
768142,-634
768186,-703
768204,-438
768226,-447
768270,-499
768290,-59
768312,118
768356,-77
768374,-675
768396,-478
768538,-182
768586,-272
768631,-53
768647,-154
768691,-360
768710,179
768731,469
768808,371
768816,-253
768860,-228
768879,-421
768900,-456
768944,-421
768965,-571
768985,-614
769029,-423
769049,98
769071,-73
769115,-434
769134,-495
769155,-173
769200,9
769220,-183
769241,-146
769285,9
769304,-57
769325,-250
769370,-294
769389,-9
769411,-74
769455,-298
769474,-231
769496,184
769540,527
769560,297
769672,49
769757,1
769803,621
769809,1347
769830,1499
769875,1566
769894,1824
769916,2069
769961,2260
769980,2098
770000,1859
770047,1677
770064,1404
770364,1013
770541,-210
770635,160
770683,35
770828,-42
770879,255
770926,395
770973,169
770979,248
770997,257
771043,221
771061,-27
771082,-145
771128,-60
771147,430
771168,308
771215,-70
771232,-340
771253,-200
771299,-153
771317,-312
771338,-364
771384,-435
771402,-320
771423,-9
771469,157
771486,-330
771507,-416
771553,-184
771571,9
771594,-184
771639,-252
771657,-70
771678,-152
771724,-246
771741,-60
771764,-37
771809,-129
771827,-210
771848,-233
771992,-286
772075,167
772122,242
772170,523
772182,173
772228,231
772245,1016
772266,1048
772312,795
772330,707
772351,931
772397,999
772415,680
772436,581
772482,519
772500,416
772521,533
772567,719
772585,633
772606,462
772652,454
772670,746
772691,712
772738,541
772755,330
772776,342
772823,319
772840,-148
772861,-553
772908,-865
772925,-619
772946,-283
772993,-148
773010,-410
773125,-339
773216,-36
773264,-557
773281,-667
773327,-862
773344,-1008
773366,-906
773413,-814
773430,-714
773468,-690
773515,-743
773536,-643
773583,-408
773599,-575
773620,-807
773667,-825
773684,-455
773706,-467
773752,-568
773768,-283
773790,-35
773835,-5
773854,-336
773876,-268
773920,-35
773939,10
773960,-204
774005,-334
774024,-203
774045,-179
774090,-223
774109,-318
774130,-283
774273,-152
774321,114
774367,-46
774381,-424
774426,-68
774444,300
774466,1
774510,-339
774529,-174
774550,190
774595,388
774614,-58
774635,-254
774680,-171
774699,220
774720,186
774797,90
774805,20
774850,-47
774868,119
774890,168
774934,8
774953,-268
774974,-121
775019,-24
775039,-463
775138,-621
775185,-716
775231,-400
775277,-433
775289,-35
775402,98
775490,72
775536,-295
775542,-29
775562,260
775607,281
775625,-222
775647,-68
775691,361
775710,503
775731,262
775776,264
775795,686
775816,501
775861,200
775880,413
775901,549
775946,318
775965,-69
775986,278
776031,627
776049,202
776071,-63
776115,10
776136,362
776157,236
776202,46
776220,-88
776258,-91
776303,-41
776308,224
776327,209
776371,71
776390,133
776411,371
776555,447
776603,312
776649,-309
776661,31
776705,295
776726,-100
776747,-346
776792,-238
776810,211
776832,44
776876,-171
776895,65
776916,119
776961,-59
776981,387
777002,1199
777047,1725
777066,1294
777088,1405
777133,2138
777151,3106
777172,2555
777219,1799
777236,1234
777258,1082
777304,579
777321,-1079
777343,-1683
777389,-1943
777405,-1934
777426,-1921
777473,-1870
777490,-1332
777528,-930
777575,-594
777688,137
777779,59
777828,-233
777846,25
777892,-146
777908,16
777931,385
777978,595
777993,311
778015,305
778062,539
778079,710
778100,440
778147,225
778165,298
778186,288
778233,187
778249,212
778270,251
778317,192
778334,196
778356,342
778403,431
778419,403
778440,485
778487,577
778504,479
778526,466
778573,572
778589,638
778610,541
778658,497
778675,475
778696,396
778842,393
778894,448
778942,762
778947,311
778995,181
779009,454
779030,705
779111,849
779117,465
779164,483
779178,819
779200,901
779247,861
779263,739
779284,819
779332,948
779348,1064
779369,1043
779417,980
779433,670
779454,568
779502,633
779519,769
779541,595
779588,430
779604,720
779625,896
779673,864
779689,690
779710,811
779758,926
779774,669
779795,500
779843,479
779858,575
779975,439
780068,561
780118,623
780129,510
780177,220
780192,-97
780215,-56
780262,-2
780278,20
780299,27
780346,-22
780363,-199
780385,-99
780432,146
780447,242
780485,-4
780532,-183
780553,-191
780601,-465
780618,-808
780638,-803
780685,-897
780702,-1198
780724,-1020
780772,-646
780788,-404
780809,-644
780857,-802
780873,-488
780894,-362
780941,-445
780957,-762
780978,-756
781122,-643
781171,-395
781217,37
781229,-311
781274,-437
781293,-95
781314,37
781359,6
781378,-107
781399,-57
781444,-46
781463,-260
781484,-289
781529,-202
781548,-168
781570,-232
781615,-177
781632,196
781653,174
781698,9
781717,-24
781738,37
781783,-114
781822,-708
781827,-704
781872,-542
781888,-576
781910,-647
781955,-436
781972,263
781994,176
782039,-79
782058,178
782079,453
782124,334
782143,-309
782256,-60
782344,-504
782391,-212
782396,227
782415,795
782460,882
782479,210
782500,221
782545,418
782563,153
782584,-209
782629,-336
782648,-42
782670,-65
782715,-182
782734,76
782755,325
782800,358
782819,129
782840,272
782885,492
782903,318
782924,125
782969,160
782988,628
783009,613
783054,347
783073,-163
783111,-65
783156,180
783161,181
783180,-47
783225,-109
783244,249
783265,242
783409,98
783457,-177
783504,153
783515,-208
783560,-98
783579,142
783600,5
783645,-123
783664,170
783685,314
783730,245
783748,124
783770,347
783814,554
783833,311
783855,176
783899,296
783918,672
783940,489
783985,114
784003,-290
784025,-172
784070,-35
784089,-102
784110,-54
784155,282
784174,1453
784195,1856
784241,2077
784260,2415
784281,2506
784328,2478
784344,2358
784365,2221
784412,1773
784549,269
784641,-2006
784690,-846
784699,374
784746,310
784762,-104
784784,115
784831,266
784848,-248
784869,-317
784916,-48
784933,329
784954,214
785001,168
785018,431
785039,490
785086,481
785103,435
785125,383
785172,376
785187,620
785209,615
785255,409
785273,190
785294,416
785341,632
785358,475
785380,350
785426,370
785442,597
785464,693
785510,773
785528,665
785549,482
785694,416
785745,376
785793,939
785799,66
785845,-115
785863,431
785963,519
786013,592
786094,618
786143,188
786190,366
786198,286
786219,507
786266,959
786282,1067
786303,678
786350,626
786368,1610
786389,1602
786436,1008
786452,378
786474,897
786521,1361
786538,769
786559,393
786606,508
786622,1151
786645,963
786692,653
786707,906
786822,1137
786914,1161
786963,784
786978,610
787025,591
787042,712
787063,499
787110,243
787127,359
787149,492
787195,432
787213,242
787234,322
787281,387
787296,309
787318,293
787364,282
787382,62
787403,-35
787449,-48
787488,-30
787535,-137
787551,-377
787572,-430
787619,-323
787636,51
787657,14
787704,-163
787721,-219
787743,-31
787789,60
787806,-300
787828,-424
787973,-378
788024,-177
788072,-238
788078,477
788124,269
788141,-602
788162,-450
788207,-72
788227,-127
788249,-409
788293,-450
788312,29
788333,137
788378,65
788396,-156
788418,-163
788462,-180
788481,-384
788502,-361
788546,-166
788567,-9
788588,-145
788632,-120
788651,463
788674,444
788718,121
788737,-224
788758,-115
788835,-100
788842,-41
788886,226
788906,129
788927,-103
788972,-158
788991,172
789107,195
789193,122
789239,98
789245,204
789263,49
789307,-46
789326,344
789347,384
789391,65
789412,-474
789433,-219
789477,94
789496,-129
789518,-381
789562,-398
789581,29
789602,223
789646,320
789667,-43
789688,-419
789732,-594
789751,-256
789773,-266
789817,-526
789836,-499
789857,-100
789902,138
789921,-69
789942,14
789986,224
790007,5
790028,-225
790073,-153
790092,284
790113,131
790289,-78
790378,150
790425,58
790446,-216
790490,-180
790509,-66
790531,-57
790575,-43
790594,-2
790615,-61
790659,-182
790678,-401
790700,-333
790744,-203
790764,-444
790786,-674
790830,-562
790849,360
790871,340
790915,-45
790934,-43
790955,424
790999,545
791018,-346
791040,-428
791083,-49
791104,318
791125,-13
791169,-223
791189,137
791211,123
791254,-141
791273,-103
791295,227
791437,363
791484,1652
791530,1958
791545,1938
791590,1650
791609,1160
791631,680
791709,-8
791715,-1294
791760,-1589
791778,-2078
791799,-1897
791844,-1515
791863,-948
791885,-734
791930,-479
791949,-164
791970,-207
792016,-264
792033,-128
792055,-13
792100,119
792118,323
792140,355
792185,334
792204,186
792225,52
792271,-37
792288,118
792309,158
792354,58
792373,172
792395,557
792440,828
792459,433
792570,197
792659,308
792707,443
792730,230
792775,48
792793,588
792814,651
792859,277
792878,-117
792900,353
792945,740
792962,230
792985,0
793030,144
793069,376
793115,-62
793132,25
793153,122
793198,258
793217,728
793239,756
793284,596
793302,668
793324,955
793369,1035
793387,394
793408,261
793453,479
793472,910
793493,692
793539,391
793558,585
793579,987
793723,1199
793772,816
793819,831
793829,560
793875,569
793892,1139
793914,1193
793959,922
793978,480
793999,729
794045,1028
794062,631
794084,184
794129,79
794148,755
794169,769
794215,366
794232,-33
794253,408
794299,827
794318,403
794339,57
794384,98
794423,693
794469,388
794486,207
794508,305
794553,311
794572,40
794593,13
794638,60
794657,-192
794678,-478
794724,-601
794741,-175
794855,-47
794943,-93
794991,-374
795012,-494
795058,-548
795075,4
795097,-23
795142,-306
795161,-14
795182,474
795228,507
795247,-507
795268,-524
795312,-159
795331,-234
795352,-686
795395,-852
795416,-237
795437,-73
795480,-110
795501,-114
795522,-75
795565,-114
795586,-183
795607,-147
795650,-177
795671,-406
795692,-352
795736,-197
795774,-122
795779,-144
795822,-48
795841,73
795863,-83
796004,-186
796051,-325
796096,-325
796113,76
796156,211
796177,-5
796198,123
796241,478
796262,418
796283,-93
796327,-372
796347,55
796368,64
796412,-192
796431,-113
796452,237
796496,316
796516,-119
796538,-34
796581,148
796601,-337
796623,-667
796666,-619
796687,14
796787,46
796833,276
796878,243
796922,-157
796938,139
796959,73
797002,-215
797023,-335
797135,-101
797219,209
797265,316
797272,755
797294,647
797370,492
797378,408
797422,361
797442,187
797463,-35
797507,-292
797527,-224
797549,25
797592,115
797611,-268
797633,-356
797677,-238
797697,79
797718,79
797762,-8
797783,-128
797804,-8
797847,209
797866,401
797888,285
797931,184
797952,146
797973,44
798017,-54
798037,184
798058,232
798102,41
798122,-48
798143,329
798285,557
798332,86
798376,-338
798393,-361
798436,-534
798457,-120
798478,65
798522,-116
798542,-144
798564,503
798607,1062
798628,737
798649,711
798692,1321
798731,2544
798736,2277
798781,1827
798797,1839
798818,1735
798864,1110
798883,-323
798904,-594
798949,-933
798968,-2175
798990,-2300
799035,-1877
799053,-1329
799074,-1516
799121,-1465
799138,-276
799160,75
799206,22
799223,34
799245,275
799291,333
799308,-75
799418,-77
799509,-351
799558,55
799579,188
799625,267
799642,115
799664,-8
799710,-60
799727,124
799748,203
799795,175
799812,26
799833,105
799880,235
799897,207
799918,119
799965,147
799982,450
800003,418
800082,185
800089,134
800135,432
800151,444
800172,332
800218,437
800236,948
800257,914
800303,681
800321,345
800342,340
800388,286
800406,-42
800427,-64
800572,81
800621,571
800669,206
800678,463
800725,510
800742,329
800763,384
800810,495
800827,492
800848,488
800894,562
800912,666
800933,637
800980,672
800997,794
801018,704
801065,593
801082,751
801103,837
801150,715
801167,480
801189,674
801235,859
801251,508
801274,276
801320,299
801336,542
801359,429
801405,238
801815,0
802042,-530
802181,-897
802232,-1254
802282,-833
802330,-827
802352,-906
802399,-873
802415,-581
802436,-445
802483,-394
802499,-491
802520,-595
802566,-697
802585,-639
802606,-547
802651,-620
802670,-1056
802691,-934
802737,-542
802754,-196
802775,-452
802820,-676
802934,-432
802982,-537
803028,-125
803074,36
803088,-108
803110,-31
803155,-79
803173,-350
803195,-242
803240,-78
803259,-404
803280,-585
803326,-398
803344,123
803366,-178
803411,-570
803428,-184
803466,151
803512,46
803517,-504
803536,-269
803581,63
803598,-241
803621,-526
803666,-476
803684,17
803705,-73
803750,-296
803769,-265
803790,-53
803836,123
803854,344
803876,303
803921,111
803940,-200
803961,-71
804105,118
804154,301
804200,246
804211,38
804256,18
804275,-160
804296,-247
804342,-257
804359,-330
804380,-400
804426,-338
804445,86
804466,148
804511,51
804529,-168
804552,-230
804597,-308
804614,-384
804636,-370
804682,-404
804699,-630
804720,-613
804799,-419
804805,-53
804851,-297
804868,-252
804890,41
804935,52
804954,-817
804976,-929
805021,-684
805038,-633
805060,-966
805106,-1029
805123,-432
805238,-435
805327,-460
805375,-479
805395,-720
805440,-614
805458,-604
805479,-842
805524,-1000
805543,-820
805565,-842
805610,-1013
805627,-888
805649,-521
805694,-328
805713,-718
805734,-732
805779,-377
805798,350
805820,290
805865,198
805884,925
805905,1484
805951,1730
805968,1199
805989,924
806035,818
806053,263
806090,-519
806137,-1424
806142,-2465
806159,-2640
806206,-2896
806223,-3363
806245,-3102
806391,-2567
806442,-456
806489,-786
806495,-454
806542,-449
806559,-579
806579,-491
806626,-465
806644,-681
806665,-552
806712,-240
806728,17
806749,-59
806796,-14
806813,345
806835,385
806882,299
806899,0
806920,-118
806967,-139
806983,40
807004,-3
807051,-135
807068,-4
807089,194
807137,199
807154,-203
807175,-139
807222,105
807238,218
807259,81
807306,54
807324,417
807345,542
807524,549
807632,816
807681,221
807775,139
807824,801
807844,749
807891,1095
807907,711
807929,426
807976,530
807992,972
808013,651
808061,222
808076,564
808099,952
808147,912
808162,142
808184,261
808231,666
808247,748
808268,457
808315,415
808333,953
808354,921
808401,651
808417,638
808438,829
808486,741
808502,168
808523,316
808669,656
808720,816
808769,516
808774,555
808822,301
808837,-40
808859,145
808906,327
808923,-55
808944,-407
808991,-599
809007,-340
809045,-157
809092,-174
809113,-551
809160,-208
809176,-51
809197,-543
809245,-953
809262,-714
809283,-585
809330,-707
809346,-803
809368,-619
809414,-513
809432,-430
809453,-264
809500,-256
809517,-911
809538,-956
809585,-676
809601,-666
809624,-1029
809670,-1093
809686,-507
809801,-686
809889,-521
809935,-522
809958,-264
810003,-481
810022,-480
810043,-401
810088,-405
810106,-628
810128,-723
810172,-733
810191,-549
810213,-507
810257,-539
810276,-689
810297,-732
810341,-683
810380,-365
810385,-318
810429,-453
810446,-537
810468,-218
810512,70
810530,-230
810552,-438
810596,-368
810617,3
810638,-75
810682,-255
810701,-501
810722,-470
810766,-299
810787,49
810808,-112
810951,-404
810998,-426
811044,-348
811058,-178
811102,-202
811121,-290
811142,-209
811186,-72
811206,50
811228,127
811272,253
811292,199
811314,37
811357,9
811376,232
811397,135
811441,-61
811462,-143
811483,-96
811527,-119
811546,-132
811568,-55
811611,-25
811632,-227
811789,-326
811876,110
811922,42
811967,24
812076,-27
812162,429
812208,207
812214,-155
812235,-423
812279,-446
812298,-103
812321,-91
812365,-212
812384,-446
812405,-432
812449,-343
812470,-301
812491,-437
812535,-557
812554,-353
812575,-213
812619,-249
812640,-450
812661,-336
812705,-183
812724,-230
812745,-232
812789,-66
812810,-46
812831,-426
812875,-774
812894,-584
812915,-455
812959,-549
812980,-647
813001,-296
813045,195
813064,949
813086,1084
813229,1084
813311,1302
813358,-155
813405,-2309
813419,-2740
813465,-2577
813482,-2013
813504,-1663
813549,-1338
813568,-873
813590,-646
813635,-419
813652,-187
813673,-223
813719,-293
813738,-262
813759,-71
813804,125
813823,69
813844,-126
813890,-221
813907,-200
813929,-280
813974,-348
813993,-72
814014,93
814060,60
814077,-153
814099,0
814144,239
814163,208
814184,-29
814230,-167
814247,-66
814360,-92
814450,89
814497,514
814519,27
814564,-4
814581,382
814603,219
814648,-32
814687,137
814692,252
814737,112
814751,-2
814774,219
814820,230
814837,-221
814858,17
814904,486
814923,316
814944,-104
814990,-102
815007,563
815028,365
815074,-86
815093,-70
815114,293
815159,448
815177,334
815198,497
815244,750
815263,651
815284,424
815330,432
815347,890
815369,765
815513,372
815563,408
815610,647
815619,709
815665,572
815682,410
815704,354
815750,343
815767,433
815789,389
815835,322
815852,542
815873,718
815920,725
815937,392
815958,336
816005,414
816043,537
816090,56
816107,-388
816129,-341
816175,-265
816192,-483
816213,-613
816259,-586
816277,-201
816298,-15
816344,66
816361,-204
816383,-379
816429,-378
816446,-233
816467,-437
816513,-704
816532,-573
816647,-368
816736,-156
816782,-462
816802,-491
816846,-479
816865,-725
816887,-743
816931,-625
816951,-616
816973,-738
817017,-702
817035,-409
817057,-503
817101,-647
817121,-347
817143,-205
817187,-385
817205,-1011
817227,-889
817270,-559
817291,-428
817312,-621
817389,-582
817397,231
817441,-94
817459,-500
817481,-290
817524,-217
817544,-951
817567,-1109
817611,-816
817631,-181
817651,-352
817792,-619
817839,-917
817884,-853
817903,-760
817946,-567
817965,-407
817986,-624
818029,-895
818050,-882
818071,-588
818115,-377
818135,-639
818157,-811
818200,-794
818221,-608
818242,-719
818285,-888
818305,-901
818406,-764
818452,-275
818497,-587
818541,-582
818557,-846
818578,-981
818622,-937
818642,-644
818664,-667
818707,-762
818746,-619
818751,-431
818795,-399
818812,-969
818924,-1186
819009,-419
819055,-151
819062,53
819083,-178
819127,-544
819148,-912
819169,-819
819213,-751
819232,-1016
819253,-1102
819297,-1015
819318,-872
819339,-1023
819383,-1150
819402,-982
819423,-935
819467,-1083
819486,-1271
819508,-1018
819552,-768
819573,-1129
819594,-1431
819638,-1459
819657,-1138
819679,-1235
819722,-1434
819741,-1323
819763,-1041
819807,-852
819827,-1002
819849,-1136
819892,-1069
819913,-348
819950,-199
820092,-409
820139,-775
820183,-809
820227,-163
820246,-212
820267,199
820310,707
820331,932
820354,862
820397,1056
820416,1798
820438,1737
820482,1457
820501,1280
820522,1175
820567,695
820586,-688
820609,-1107
820653,-1449
820672,-2301
820692,-2446
820736,-2258
820757,-1823
820779,-1696
820823,-1424
820842,-621
820864,-464
820908,-493
820927,-617
820949,-684
820993,-755
821012,-624
821033,-466
821078,-399
821097,-404
821118,-267
821261,-92
821309,-528
821387,-739
821433,-156
821451,318
821496,356
821514,-6
821536,-85
821580,6
821600,-65
821622,-323
821666,-462
821685,-91
821707,126
821751,246
821770,402
821791,461
821836,468
821855,488
821877,529
821922,486
821940,75
821962,-24
822007,114
822025,648
822047,697
822092,617
822111,624
822132,686
822177,662
822196,552
822217,613
822262,628
822280,305
822393,251
822481,390
822528,581
822534,416
822552,355
822597,456
822616,784
822637,784
822682,709
822701,691
822722,725
822800,682
822807,367
822852,374
822869,514
822891,520
822935,465
822954,553
822976,771
823021,930
823040,666
823061,501
823106,551
823125,804
823147,588
823192,221
823209,96
823230,326
823276,404
823295,-68
823316,-178
823361,-60
823380,231
823401,255
823545,220
823594,-2
823640,-418
823652,-232
823697,-259
823715,-323
823736,-291
823781,-382
823800,-750
823822,-651
823866,-409
823885,-571
823907,-880
823952,-946
823971,-502
823992,-525
824037,-724
824054,-767
824092,-632
824137,-591
824143,-609
824161,-590
824205,-665
824225,-864
824247,-717
824290,-495
824311,-680
824332,-856
824375,-765
824396,-431
824417,-609
824460,-795
824481,-503
824502,-455
824545,-645
824566,-455
824679,36
824763,-149
824808,-1144
824815,-371
824837,-44
824880,-210
824900,-640
824922,-246
824965,311
824985,434
825007,110
825050,-20
825070,194
825092,52
825135,-269
825155,-390
825177,-227
825220,-246
825240,-526
825262,-402
825305,-226
825325,-433
825347,-575
825423,-559
825431,-1057
825475,-1210
825495,-752
825517,-691
825560,-877
825579,-806
825601,-473
825644,-338
825665,-780
825686,-838
825829,-714
825876,-668
825921,-545
825937,-506
825980,-414
825999,-582
826021,-835
826064,-849
826085,47
826106,219
826150,-39
826170,-91
826192,447
826235,718
826254,-277
826276,-593
826319,-336
826340,268
826361,-16
826405,-385
826425,-190
826447,144
826490,232
826511,-445
826532,-733
826576,-718
826595,-330
826616,-359
826660,-512
826698,-501
826703,-384
826747,-345
826766,-299
826787,-271
826831,-410
826850,-905
826963,-745
827048,-653
827093,-414
827100,-736
827122,-745
827165,-683
827185,-329
827207,-89
827250,72
827270,46
827292,56
827335,106
827355,-10
827376,-93
827420,-3
827440,403
827462,488
827505,635
827526,1590
827547,2004
827592,2082
827611,1984
827632,2254
827678,2525
827695,2060
827718,1439
827764,870
827781,125
827802,-312
827848,-961
827865,-2129
827888,-2065
827934,-1686
827972,-1632
828116,-1559
828166,344
828212,471
828221,-30
828267,32
828285,94
828307,-85
828352,-257
828369,-260
828391,-144
828436,-79
828455,-155
828477,-142
828522,9
828541,336
828561,237
828606,13
828625,-105
828647,-47
828692,-105
828710,-276
828731,-139
828777,-9
828796,-250
828817,-251
828863,20
828880,183
828901,-223
828947,-533
828964,-71
828987,101
829033,-105
829050,-478
829072,-260
829117,-18
829136,-159
829308,-292
829397,146
829447,826
829495,184
829574,573
829623,453
829635,561
829657,320
829703,387
829720,1216
829742,1231
829788,913
829804,683
829825,939
829872,1063
829889,525
829910,354
829957,499
829974,960
829996,870
830042,679
830059,909
830081,1142
830127,1076
830145,364
830166,380
830213,703
830230,837
830251,488
830397,275
830448,263
830495,180
830501,-339
830547,-235
830565,-32
830586,-356
830633,-658
830650,-306
830671,-116
830718,-253
830735,-719
830756,-732
830803,-694
830820,-478
830841,-323
830887,-366
831210,-938
831387,-683
831578,-674
831667,-895
831752,-1341
831798,-870
831814,-910
831835,-500
831879,-271
831898,-701
831920,-825
831964,-684
831984,-436
832006,-554
832049,-586
832068,-76
832090,109
832134,64
832154,-114
832175,8
832219,100
832238,-294
832261,-481
832305,-405
832324,-17
832345,-109
832389,-298
832409,-230
832431,-37
832474,105
832493,218
832515,145
832558,-42
832579,-47
832600,309
832742,557
832790,401
832835,33
832850,212
832894,235
832913,111
832951,25
832995,-133
833000,-465
833020,-367
833064,-109
833085,58
833106,-71
833150,-64
833169,380
833190,374
833234,143
833254,-17
833276,211
833320,374
833338,188
833360,135
833404,272
833424,656
833446,641
833490,477
833508,187
833530,215
833574,313
833594,292
833616,166
833660,148
833678,695
833701,907
833745,819
833764,203
833878,138
833963,-270
834009,121
834015,313
834036,568
834080,675
834099,318
834120,296
834164,541
834185,913
834206,727
834250,484
834288,519
834293,576
834337,457
834355,-9
834376,-189
834420,-352
834439,-429
834460,-198
834505,41
834525,-245
834546,-500
834591,-436
834609,164
834631,92
834675,-171
834694,28
834717,477
834761,806
834780,1045
834801,1288
834846,1595
834865,2009
834887,2229
835031,2499
835081,56
835128,-1947
835136,-2086
835182,-2210
835199,-4141
835221,-4718
835268,-4436
835285,-3898
835307,-4566
835354,-5235
835370,-4826
835391,-4473
835439,-4645
835454,-5643
835476,-5796
835523,-5700
835562,-5508
835610,-5909
835624,-6243
835645,-6149
835693,-6067
835708,-6660
835730,-7199
835777,-7658
835794,-8358
835816,-8729
835863,-9001
835879,-8859
835901,-8730
835947,-8865
835963,-9508
835985,-9523
836032,-9348
836049,-9476
836163,-9671
836254,-12220
836303,-16110
836319,-13842
836366,-13726
836383,-10168
836405,1843
836451,15608
836468,14352
836490,4765
836538,4629
836554,22139
836576,19105
836625,6747
836639,-7370
836659,-3990
836708,-1232
836724,-3630
836762,-3824
836811,-1500
836829,4503
836878,5698
836893,1915
836914,-2375
836963,-4766
836977,-3047
836999,-557
837047,2805
837063,3789
837085,1878
837134,-706
837147,-2461
837169,-1104
837316,-222
837370,-3075
837419,-1196
837470,-4589
837482,2284
837504,9800
837553,13402
837567,-300
837588,-7823
837638,-9446
837652,27
837673,2852
837722,2039
837736,-8308
837758,-10916
837807,-6280
837821,19188
837843,28752
837893,30116
837906,15296
837928,6362
837978,-405
837992,4244
838030,14841
838081,24422
838097,4868
838147,-3644
838161,6706
838183,17651
838233,23005
838246,10475
838267,964
838316,-3071
838331,9995
838449,17258
838544,6505
838596,8710
838602,1198
838651,-1559
838665,10762
838687,18641
838735,18633
838750,6222
838771,5546
838820,7355
838836,5595
838858,6979
838906,12168
838921,13537
838942,6393
838991,1879
839005,9386
839028,10739
839076,6055
839091,603
839112,8007
839161,18376
839175,27212
839197,22157
839246,12860
839260,-4231
839298,-4946
839347,794
839366,22233
839415,20473
839429,7872
839451,2924
839598,1542
839652,9864
839702,7473
839752,8523
839763,11285
839785,10810
839834,9079
839848,6815
839870,7346
839918,7941
839934,7032
