timestamp,ECG_Raw
2867863,-417
2867961,-14146
2868012,-13540
2868062,-3279
2868112,15714
2868129,-4692
2868178,-5860
2868193,3531
2868214,3733
2868264,-325
2868278,-7706
2868382,-9828
2868480,-2235
2868532,29788
2868549,-992
2868600,6479
2868612,3408
2868634,-7559
2868685,-3303
2868696,32643
2868718,26228
2868770,831
2868783,-30624
2868803,-23136
2868855,-11917
2868867,6720
2868889,11445
2868941,9454
2868952,-8520
2868974,-11069
2869026,-7730
2869037,-3136
2869058,-2448
2869110,3003
2869157,16916
2869210,9554
2869227,-4179
2869280,-12517
2869291,-7387
2869312,6996
2869365,16657
2869376,5735
2869396,-4273
2869548,-11216
2869605,10568
2869661,-29287
2869716,-13353
2869729,14902
2869784,9231
2869794,-10884
2869815,-16399
2869870,-16280
2869878,-4239
2869900,2104
2869954,5070
2869964,-260
2869985,-4888
2870040,-7976
2870048,-7496
2870070,-5193
2870125,-2815
2870134,-847
2870156,-1558
2870211,-2734
2870219,-4312
2870240,-4421
2870295,-4176
2870303,-3213
2870359,-2926
2870414,-2959
2870471,-3038
2870493,-3313
2870548,-3105
2870556,-2777
2870676,-2636
2870784,-2557
2870843,-1682
2870899,-1595
2870910,-919
2870965,-966
2870973,-1330
2870994,-1380
2871050,-1349
2871058,-1337
2871079,-1345
2871134,-1302
2871143,-1052
2871164,-884
2871220,-721
2871227,-361
2871249,-144
2871304,0
2871313,-265
2871335,-511
2871390,-562
2871398,-227
2871419,-329
2871473,-700
2871482,-1193
2871504,-1073
2871557,-935
2871568,-1129
2871590,-1337
2871675,-1526
2871828,-1755
2871884,-1778
2871937,-2091
2871989,-2420
2872005,-2586
2872057,-2403
2872069,-2576
2872091,-2688
2872142,-2645
2872155,-2490
2872175,-2551
2872226,-2606
2872239,-2321
2872260,-2059
2872311,-1881
2872324,-1828
2872345,-1781
2872397,-1688
2872409,-1644
2872431,-1672
2872482,-1666
2872494,-1719
2872516,-1816
2872566,-1808
2872579,-1428
2872600,-1459
2872651,-1766
2872664,-2154
2872685,-1905
2872736,-1656
2872750,-2025
2872770,-2286
2872819,-2241
2872858,-1945
2873008,-2669
2873061,-2707
2873111,-2323
2873162,-1873
2873168,-2002
2873189,-2068
2873238,-2004
2873253,-1878
2873274,-2079
2873324,-2310
2873338,-2099
2873360,-1775
2873408,-1595
2873423,-1607
2873444,-1480
2873493,-1232
2873508,-954
2873529,-968
2873578,-987
2873592,-958
2873613,-951
2873662,-953
2873678,-898
2873699,-723
2873747,-315
2873763,848
2873785,1143
2873833,1257
2873848,1914
2873870,2406
2873918,2602
2873932,1969
2873954,1625
2874002,1364
2874018,291
2874154,-604
2874248,-3342
2874298,-2238
2874346,-1720
2874352,-1345
2874373,-1463
2874420,-1630
2874436,-1659
2874458,-1687
2874505,-1813
2874521,-1978
2874542,-1958
2874589,-1984
2874607,-2068
2874627,-1955
2874674,-1839
2874691,-1945
2874713,-1911
2874760,-1679
2874776,-1416
2874798,-1570
2874844,-1639
2874862,-1154
2874882,-1072
2874929,-1276
2874946,-1537
2874968,-1389
2875015,-1355
2875031,-2008
2875052,-2258
2875099,-2208
2875117,-1574
2875138,-1248
2875185,-964
2875322,-435
2875414,605
2875464,1219
2875471,1589
2875518,1628
2875534,2021
2875556,2207
2875603,2138
2875620,1663
2875642,1693
2875689,1862
2875704,1785
2875726,1624
2875773,1689
2875790,2249
2875812,2144
2875859,1664
2875875,954
2875896,1105
2875943,1296
2875960,975
2875982,803
2876029,916
2876044,1378
2876066,1305
2876113,1105
2876130,846
2876152,590
2876199,165
2876214,-302
2876236,-128
2876282,56
2876300,-47
2876321,-38
2876466,140
2876515,-118
2876563,-530
2876571,-563
2876650,-536
2876657,-137
2876703,-143
2876719,-405
2876740,-280
2876787,38
2876804,221
2876826,-43
2876872,-166
2876889,567
2876911,849
2876957,706
2876975,73
2876996,98
2877042,171
2877060,-448
2877081,-856
2877127,-999
2877145,-923
2877166,-1045
2877213,-1171
2877230,-996
2877250,-883
2877297,-945
2877314,-1188
2877336,-1068
2877382,-902
2877400,-1220
2877421,-1582
2877468,-1714
2877485,-1394
2877599,-1447
2877690,-1842
2877739,-1975
2877755,-1657
2877802,-1273
2877858,-1509
2877905,-1516
2877924,-841
2877970,-1118
2877988,-1355
2878008,-1272
2878054,-1186
2878072,-1116
2878094,-1145
2878140,-1205
2878158,-1197
2878179,-1162
2878226,-1151
2878242,-1112
2878263,-1185
2878310,-1387
2878328,-1542
2878349,-1238
2878396,-957
2878412,-1362
2878433,-1636
2878480,-1533
2878497,-859
2878598,-855
2878745,-1335
2878836,-1169
2878885,-756
2878932,-287
2878937,-538
2878983,-805
2878998,-973
2879018,-843
2879063,-761
2879083,-1152
2879104,-1331
2879182,-1212
2879189,-459
2879234,-671
2879251,-807
2879273,-450
2879318,-63
2879337,-176
2879359,-564
2879404,-811
2879423,-690
2879444,-671
2879489,-821
2879507,-1090
2879528,-1016
2879572,-893
2879592,-810
2879614,-769
2879657,-659
2879678,-581
2879699,-747
2879742,-878
2879763,-429
2879876,-101
2879959,-701
2880004,-1482
2880012,-1342
2880033,-1244
2880075,-1124
2880080,-950
2880099,-789
2880120,-721
2880162,-765
2880183,-1084
2880205,-1302
2880246,-1437
2880252,-1331
2880290,-998
2880332,-565
2880354,-734
2880375,-673
2880416,-606
2880421,-724
2880440,-1023
2880461,-1303
2880501,-1455
2880507,-1515
2880525,-1519
2880547,-1425
2880587,-1196
2880592,-951
2880612,-859
2880634,-942
2880674,-1048
2880679,-1036
2880697,-951
2880719,-932
2880759,-1028
2880764,-1130
2880784,-1113
2880805,-1017
2880845,-944
2880850,-909
2880870,-853
2880892,-726
2881030,-582
2881073,-374
2881114,-17
2881121,121
2881142,272
2881182,630
2881187,1134
2881207,1579
2881245,1812
2881285,1898
2881293,2238
2881313,2331
2881353,2097
2881358,1542
2881378,929
2881400,437
2881440,7
2881444,-561
2881464,-1290
2881486,-1922
2881526,-2200
2881531,-2168
2881550,-2134
2881571,-2321
2881611,-2600
2881617,-2671
2881637,-2424
2881658,-2042
2881698,-1788
2881703,-1726
2881722,-1740
2881743,-1753
2881783,-1838
2881788,-2056
2881808,-2300
2881830,-2386
2881870,-2317
2881875,-2308
2881895,-2474
2881915,-2680
2881955,-2661
2881960,-2380
2881980,-2072
2882018,-1942
2882057,-1968
2882065,-2038
2882174,-2186
2882251,-2127
2882258,-2324
2882297,-1813
2882317,-1436
2882338,-1851
2882378,-2240
2882383,-2310
2882403,-2148
2882425,-2061
2882465,-2194
2882470,-2368
2882488,-2318
2882510,-1965
2882550,-1557
2882555,-1383
2882575,-1455
2882597,-1532
2882636,-1408
2882641,-1163
2882661,-1065
2882683,-1249
2882723,-1526
2882728,-1610
2882746,-1431
2882768,-1217
2882808,-1205
2882813,-1350
2882833,-1413
2882855,-1229
2882894,-901
2882932,-691
2882940,-821
2882979,-865
2882985,-807
2883004,-799
2883026,-935
2883066,-1096
2883071,-1114
2883091,-1000
2883111,-978
2883150,-1176
2883156,-1420
2883176,-1404
2883197,-1088
2883336,-765
2883379,-617
2883419,-938
2883427,-878
2883448,-958
2883488,-1092
2883493,-1114
2883513,-978
2883535,-818
2883574,-780
2883580,-897
2883600,-1079
2883621,-1191
2883661,-1164
2883666,-1022
2883686,-887
2883708,-927
2883747,-1157
2883753,-1379
2883771,-1380
2883793,-1171
2883832,-999
2883870,-1045
2883878,-1191
2883918,-1059
2883923,-1012
2883943,-1173
2883965,-1397
2884004,-1452
2884010,-1360
2884028,-1341
2884050,-1509
2884089,-1699
2884095,-1676
2884115,-1426
2884136,-1153
2884176,-1057
2884181,-1161
2884201,-1330
2884223,-1420
2884263,-1375
2884268,-1267
2884286,-1245
2884308,-1463
2884347,-1906
2884353,-2308
2884373,-2390
2884481,-2164
2884558,-2186
2884565,-1507
2884605,-1722
2884624,-2282
2884645,-2285
2884685,-2165
2884690,-2162
2884711,-2396
2884749,-2720
2884788,-2907
2884795,-3034
2884816,-3261
2884856,-3410
2884861,-3240
2884881,-2836
2884903,-2556
2884943,-2594
2884948,-2715
2884967,-2591
2884988,-2205
2885028,-1834
2885033,-1733
2885053,-1839
2885075,-1912
2885114,-1820
2885120,-1683
2885140,-1728
2885161,-2056
2885201,-2527
2885206,-2834
2885225,-2753
2885246,-2386
2885286,-2080
2885291,-2111
2885311,-2359
2885333,-2418
2885372,-2077
2885377,-1544
2885398,-1241
2885419,-1350
2885459,-1656
2885464,-1882
2885502,-1970
2885507,-2004
2885646,-2022
2885689,-1660
2885729,-860
2885735,-799
2885756,-1134
2885796,-1392
2885801,-1448
2885821,-1402
2885843,-1481
2885882,-1766
2885887,-2069
2885907,-2125
2885928,-1925
2885967,-1703
2885972,-1660
2885992,-1752
2886014,-1765
2886054,-1613
2886059,-1409
2886079,-1275
2886100,-1232
2886140,-1242
2886145,-1304
2886165,-1451
2886187,-1629
2886227,-1717
2886232,-1674
2886250,-1591
2886272,-1574
2886311,-1602
2886317,-1577
2886337,-1491
2886375,-1458
2886415,-1555
2886422,-1643
2886443,-1558
2886482,-1635
2886488,-1949
2886508,-2234
2886529,-2197
2886569,-1880
2886574,-1619
2886594,-1603
2886616,-1662
2886656,-1507
2886661,-1134
2886679,-874
2886791,-942
2886868,-1460
2886910,-1451
2886930,-1614
2886952,-1588
2886992,-1366
2886997,-1111
2887016,-1034
2887037,-1185
2887077,-1408
2887082,-1506
2887102,-1401
2887124,-1233
2887163,-1217
2887168,-1372
2887189,-1482
2887210,-1339
2887250,-1044
2887255,-891
2887293,-985
2887298,-1081
2887338,-871
2887360,-208
2887381,-433
2887421,-887
2887426,-1140
2887446,-1111
2887468,-1112
2887507,-1407
2887512,-1888
2887531,-2214
2887553,-2232
2887592,-2107
2887597,-2042
2887617,-2014
2887639,-1899
2887679,-1665
2887684,-1414
2887704,-1252
2887726,-1202
2887765,-1238
2887770,-1303
2887789,-1322
2887810,-1224
2887948,-1087
2887991,-1691
2888032,-1990
2888041,-1890
2888063,-1472
2888102,-1263
2888107,-1350
2888127,-1451
2888149,-1322
2888188,-1066
2888227,-973
2888234,-1410
2888274,-1468
2888279,-1268
2888297,-965
2888319,-733
2888358,-652
2888363,-702
2888383,-793
2888405,-835
2888444,-740
2888449,-507
2888469,-250
2888491,-102
2888530,-3
2888535,270
2888555,886
2888577,1769
2888616,2596
2888622,3096
2888642,3280
2888663,3371
2888703,3525
2888708,3629
2888728,3436
2888750,2811
2888790,1869
2888795,886
2888814,63
2888835,-586
2888875,-1193
2888880,-1836
2888900,-2422
2888922,-2760
2888961,-2739
2888967,-2485
2889103,-2249
2889181,-1579
2889222,-2036
2889235,-1997
2889257,-1807
2889296,-1658
2889302,-1722
2889322,-1935
2889343,-2024
2889383,-1807
2889388,-1435
2889407,-1255
2889507,-1456
2889549,-1604
2889590,-1396
2889596,-1991
2889635,-2080
2889641,-1938
2889661,-1741
2889682,-1662
2889722,-1721
2889727,-1759
2889747,-1635
2889768,-1382
2889807,-1152
2889812,-1095
2889832,-1188
2889854,-1310
2889894,-1401
2889899,-1487
2889919,-1610
2889941,-1762
2889980,-1849
2889986,-1788
2890024,-1623
2890029,-1421
2890069,-1210
2890089,-857
2890111,-846
2890249,-924
2890292,-1216
2890332,-878
2890342,-735
2890363,-764
2890403,-705
2890408,-621
2890426,-647
2890448,-776
2890487,-892
2890493,-906
2890512,-863
2890534,-809
2890574,-713
2890579,-549
2890599,-395
2890620,-342
2890660,-336
2890665,-234
2890685,-29
2890706,77
2890746,-49
2890751,-235
2890771,-205
2890792,89
2890832,334
2890837,228
2890857,-120
2890878,-337
2890918,-256
2890923,-100
2890943,-189
2890981,-524
2891020,-805
2891028,-436
2891049,-97
2891089,64
2891094,71
2891114,50
2891135,68
2891175,94
2891180,104
2891200,102
2891221,74
2891261,-39
2891266,-245
2891286,-453
2891394,-512
2891471,-85
2891478,-552
2891517,-610
2891538,-478
2891559,-511
2891599,-748
2891604,-1019
2891624,-1002
2891646,-617
2891686,-156
2891691,-12
2891710,-236
2891732,-515
2891772,-533
2891777,-317
2891795,-166
2891817,-264
2891856,-481
2891861,-580
2891881,-516
2891903,-460
2891942,-553
2891981,-726
2891988,-747
2892028,-693
2892033,-750
2892053,-880
2892074,-960
2892114,-947
2892119,-952
2892139,-1074
2892161,-1264
2892201,-1395
2892206,-1406
2892226,-1356
2892246,-1311
2892286,-1242
2892291,-1069
2892311,-824
2892333,-649
2892372,-624
2892377,-682
2892397,-739
2892419,-783
2892557,-885
2892600,-894
2892640,-839
2892648,-457
2892669,-374
2892709,-470
2892714,-686
2892734,-893
2892755,-958
2892795,-886
2892800,-777
2892820,-725
2892842,-728
2892881,-695
2893160,-564
2893278,-61
2893355,-467
2893396,-869
2893402,-708
2893424,-639
2893463,-607
2893468,-610
2893488,-605
2893510,-490
2893550,-258
2893555,-25
2893574,58
2893681,-18
2893758,-77
2893764,-381
2893804,-399
2893824,-616
2893846,-654
2893885,-671
2893891,-792
2893911,-1033
2893932,-1242
2893972,-1244
2893977,-1051
2893997,-843
2894019,-768
2894058,-771
2894063,-689
2894083,-506
2894105,-328
2894144,-277
2894149,-349
2894169,-478
2894191,-618
2894230,-790
2894236,-961
2894273,-1053
2894279,-1040
2894318,-990
2894324,-1004
2894342,-1099
2894362,-1158
2894402,-1073
2894407,-848
2894427,-589
2894449,-437
2894488,-479
2894493,-682
2894513,-903
2894535,-958
2894574,-779
2894579,-487
2894599,-303
2894621,-329
2894660,-450
2894665,-491
2894685,-423
2894707,-356
2894845,-362
2894888,-1372
2894928,-967
2894936,-649
2894957,-860
2894997,-1048
2895002,-985
2895022,-667
2895043,-295
2895083,-129
2895088,-313
2895108,-751
2895130,-1116
2895169,-1135
2895207,-823
2895215,-518
2895254,-844
2895259,-1167
2895279,-1243
2895301,-1103
2895341,-958
2895346,-923
2895366,-948
2895387,-984
2895427,-1048
2895432,-1102
2895452,-1067
2895474,-940
2895513,-872
2895518,-971
2895538,-1104
2895560,-1041
2895600,-775
2895605,-590
2895623,-696
2895645,-912
2895684,-894
2895689,-587
2895709,-368
2895731,-577
2895771,-1068
2895776,-1381
2895796,-1293
2895818,-1039
2895857,-975
2895862,-1139
2895882,-1257
2895989,-1111
2896066,-648
2896224,-160
2896303,2383
2896345,3559
2896385,3172
2896401,2184
2896441,1422
2896446,686
2896466,33
2896488,-624
2896528,-1323
2896533,-1893
2896553,-2100
2896575,-1975
2896614,-1810
2896620,-1852
2896638,-2016
2896660,-2035
2896700,-1829
2896705,-1605
2896725,-1615
2896747,-1877
2896786,-2192
2896792,-2363
2896810,-2371
2896832,-2299
2896872,-2210
2896877,-2062
2896897,-1808
2896919,-1524
2896958,-1391
2896963,-1486
2896982,-1686
2897004,-1755
2897142,-1610
2897185,-1566
2897258,-1239
2897300,-1211
2897317,-1200
2897339,-1315
2897379,-1343
2897384,-1248
2897402,-1066
2897424,-893
2897464,-834
2897469,-905
2897489,-1008
2897510,-996
2897550,-839
2897555,-649
2897575,-583
2897597,-665
2897636,-775
2897641,-770
2897661,-640
2897683,-480
2897723,-382
2897728,-383
2897746,-480
2897768,-632
2897807,-744
2897813,-719
2897833,-553
2897854,-409
2897894,-452
2897899,-646
2897919,-734
2897940,-544
2897980,-201
2897985,-25
2898005,-176
2898027,-482
2898099,-638
2898110,-254
2898150,-382
2898155,-542
2898175,-554
2898282,-421
2898359,-258
2898366,-306
2898406,-278
2898426,-261
2898448,-520
2898487,-776
2898493,-737
2898513,-375
2898534,-20
2898574,17
2898579,-205
2898599,-332
2898620,-149
2898660,178
2898665,313
2898685,134
2898706,-168
2898746,-342
2898751,-312
2898771,-185
2898793,-86
2898832,-87
2898838,-180
2898857,-296
2898879,-314
2898919,-154
2898924,91
2898942,194
2898964,18
2899003,-324
2899008,-568
2899028,-574
2899066,-442
2899106,-420
2899114,-952
2899135,-1033
2899175,-744
2899180,-303
2899200,-70
2899221,-204
2899261,-507
2899266,-654
2899286,-544
2899308,-406
2899446,-470
2899489,-541
2899529,-952
2899537,-880
2899559,-1084
2899598,-1422
2899604,-1676
2899624,-1727
2899645,-1623
2899685,-1485
2899690,-1409
2899709,-1439
2899731,-1580
2899770,-1787
2899775,-1936
2899795,-1933
2899817,-1803
2899857,-1690
2899862,-1682
2899882,-1739
2899902,-1739
2899942,-1616
2899947,-1380
2899985,-1093
2899990,-884
2900030,-899
2900035,-1177
2900053,-1542
2900075,-1690
2900114,-1446
2900120,-1002
2900140,-762
2900161,-891
2900201,-1128
2900206,-1137
2900226,-934
2900247,-845
2900287,-1096
2900292,-1506
2900312,-1743
2900411,-1714
2900453,-1422
2900592,-855
2900670,-1324
2900711,-770
2900727,-443
2900749,-274
2900788,-231
2900793,-472
2900813,-930
2900835,-1303
2900874,-1334
2900879,-1158
2900900,-1157
2900921,-1457
2900961,-1767
2900966,-1716
2900986,-1312
2901024,-944
2901064,-905
2901071,-1156
2901093,-986
2901132,-739
2901137,-631
2901157,-715
2901179,-911
2901218,-1104
2901224,-1157
2901244,-998
2901265,-717
2901305,-520
2901310,-546
2901330,-701
2901351,-742
2901391,-567
2901396,-376
2901416,-423
2901437,-693
2901477,-904
2901482,-830
2901502,-569
2901523,-445
2901563,-649
2901568,-990
2901588,-1099
2901608,-823
2901746,-388
2901789,-268
2901829,-340
2901838,-578
2901860,-749
2901899,-898
2901904,-872
2901924,-660
2901962,-465
2902001,-477
2902009,-726
2902031,-596
2902070,-331
2902075,-127
2902095,-85
2902117,-160
2902156,-283
2902161,-421
2902181,-550
2902203,-619
2902242,-592
2902247,-499
2902267,-407
2902289,-381
2902328,-439
2902333,-547
2902353,-638
2902375,-623
2902414,-514
2902419,-430
2902439,-490
2902461,-684
2902500,-841
2902505,-794
2902525,-561
2902547,-333
2902586,-274
2902591,-350
2902611,-408
2902633,-354
2902672,-251
2902678,-209
2902697,-242
2902719,-253
2902758,-224
2902895,-241
2902973,-66
2903014,-439
2903032,-397
2903053,-796
2903093,-1113
2903098,-1058
2903118,-707
2903140,-439
2903179,-565
2903184,-939
2903204,-1153
2903226,-994
2903265,-665
2903270,-530
2903290,-713
2903312,-949
2903351,-902
2903356,-566
2903376,-247
2903398,-225
2903437,-441
2903442,-585
2903462,-466
2903484,-191
2903523,-45
2903528,-153
2903548,-400
2903570,-572
2903609,-569
2903614,-457
2903634,-342
2903656,-297
2903695,-298
2903701,-274
2903720,-164
2903758,14
2903798,150
2903805,41
2903827,59
2903866,312
2903871,685
2903891,967
2903913,1121
2904050,1358
2904094,4036
2904134,4355
2904143,3830
2904163,3732
2904203,3545
2904209,2914
2904229,1850
2904250,796
2904290,124
2904295,-228
2904315,-582
2904337,-1056
2904376,-1466
2904382,-1629
2904400,-1635
2904422,-1674
2904462,-1721
2904467,-1583
2904487,-1223
2904509,-919
2904548,-962
2904553,-1278
2904573,-1460
2904595,-1242
2904635,-804
2904640,-529
2904658,-581
2904680,-776
2904752,-866
2904764,-1089
2904804,-1151
2904809,-1048
2904829,-949
2904850,-1061
2904890,-1311
2904895,-1364
2904915,-1021
2904937,-500
2904977,-203
2904982,-270
2905002,-469
2905023,-523
2905063,-439
2905068,-403
2905086,-532
2905195,-712
2905272,-838
2905279,-260
2905318,-199
2905338,-230
2905359,-88
2905398,148
2905404,304
2905424,243
2905445,43
2905485,-55
2905490,83
2905510,320
2905531,370
2905571,150
2905576,-97
2905597,-88
2905617,151
2905657,314
2905662,210
2905700,-40
2905705,-175
2905745,-100
2905750,70
2905768,158
2905790,135
2905829,74
2905834,34
2905854,5
2905876,-26
2905915,-73
2905920,-139
2905940,-184
2905962,-158
2906002,-49
2906007,54
2906027,71
2906048,24
2906088,28
2906093,142
2906113,279
2906134,297
2906174,169
2906179,-8
2906199,-130
2906220,-159
2906359,-137
2906402,-231
2906443,-157
2906451,-48
2906472,-105
2906512,-195
2906517,-222
2906535,-138
2906557,-10
2906597,14
2906602,-119
2906622,-281
2906643,-307
2906716,-187
2906728,-65
2906767,-73
2906772,-107
2906792,-183
2906814,-250
2906854,-211
2906859,-127
2906879,-186
2906899,-453
2906939,-748
2906944,-828
2906964,-672
2906986,-477
2907026,-428
2907031,-484
2907051,-519
2907072,-478
2907112,-403
2907117,-357
2907136,-357
2907157,-379
2907197,-432
2907203,-528
2907223,-663
2907244,-797
2907284,-861
2907289,-840
2907308,-792
2907329,-829
2907369,-1010
2907375,-1215
2907395,-1251
2907503,-1071
2907581,-1542
2907623,-1375
2907662,-1325
2907667,-1095
2907707,-1038
2907712,-1214
2907731,-1468
2907752,-1602
2907792,-1598
2907798,-1600
2907816,-1745
2907838,-1974
2907878,-2114
2907883,-2059
2907903,-1879
2907925,-1737
2907965,-1717
2907970,-1739
2907988,-1691
2908010,-1552
2908050,-1396
2908055,-1320
2908075,-1348
2908097,-1454
2908137,-1604
2908142,-1728
2908160,-1768
2908182,-1715
2908222,-1628
2908227,-1601
2908247,-1670
2908268,-1764
2908308,-1783
2908313,-1684
2908333,-1525
2908355,-1402
2908395,-1368
2908433,-1395
2908439,-1333
2908479,-1219
2908484,-1115
2908504,-1052
2908526,-1009
2908664,-993
2908708,-1118
2908749,-1282
2908755,-1369
2908776,-976
2908816,-570
2908821,-449
2908841,-575
2908863,-666
2908903,-588
2908908,-490
2908928,-577
2908949,-816
2908989,-983
2908994,-1001
2909013,-1062
2909034,-1329
2909074,-1645
2909080,-1669
2909100,-1309
2909121,-856
2909161,-664
2909166,-754
2909185,-847
2909206,-723
2909246,-442
2909251,-241
2909271,-304
2909293,-604
2909366,-951
2909377,-1012
2909417,-1001
2909422,-1183
2909441,-1383
2909463,-1333
2909503,-1001
2909508,-649
2909528,-580
2909549,-783
2909589,-961
2909594,-913
2909613,-710
2909634,-564
2909674,-564
2909679,-581
2909699,-525
2909810,-484
2909887,-542
2909929,-1034
2909950,-644
2909971,-685
2910011,-736
2910017,-644
2910037,-476
2910058,-403
2910098,-467
2910103,-539
2910121,-510
2910143,-446
2910183,-477
2910188,-609
2910208,-698
2910229,-628
2910269,-401
2910274,-124
2910312,89
2910317,193
2910357,194
2910380,136
2910401,215
2910441,285
2910446,230
2910464,27
2910486,-184
2910525,-236
2910531,-121
2910551,-4
2910572,-13
2910612,-127
2910617,-233
2910637,-265
2910658,-238
2910698,-181
2910703,-99
2910723,2
2910745,81
2910784,134
2910789,232
2910809,429
2910831,638
2910969,685
2911013,-297
2911053,-175
2911061,-93
2911082,171
2911122,564
2911127,796
2911146,654
2911169,314
2911209,146
2911214,286
2911232,448
2911332,306
2911375,416
2911448,267
2911491,1110
2911504,545
2911544,444
2911549,613
2911569,819
2911591,821
2911631,628
2911636,440
2911655,466
2911676,743
2911717,1072
2911722,1220
2911740,1145
2911762,1053
2911803,1156
2911808,1431
2911826,1688
2911848,1803
2911889,1909
2911894,2240
2911913,2864
2911934,3573
2911975,4097
2911981,4382
2911999,4575
2912108,4819
2912189,3370
2912232,1220
2912250,-130
2912270,-482
2912311,-554
2912316,-555
2912335,-652
2912356,-819
2912398,-894
2912403,-841
2912441,-728
2912446,-605
2912487,-467
2912506,-204
2912528,-284
2912569,-473
2912574,-562
2912592,-471
2912614,-395
2912655,-545
2912660,-845
2912679,-951
2912700,-695
2912742,-335
2912747,-266
2912765,-511
2912787,-679
2912828,-477
2912849,8
2912872,-203
2912913,-406
2912935,-35
2912957,2
2912998,-265
2913003,-485
2913021,-369
2913043,-30
2913084,120
2913106,-461
2913128,-606
2913268,-499
2913313,-567
2913355,-306
2913377,-314
2913418,-595
2913423,-780
2913442,-726
2913463,-530
2913538,-397
2913548,-560
2913590,-358
2913610,197
2913632,178
2913673,-47
2913678,-237
2913697,-180
2913718,88
2913760,287
2913765,223
2913783,7
2913805,-62
2913846,69
2913851,134
2913870,-63
2913891,-331
2913933,-322
2913955,209
2913976,39
2914018,-327
2914039,-44
2914060,327
2914101,340
2914107,92
2914125,-47
2914146,-8
2914188,-64
2914193,-383
2914211,-694
2914233,-616
2914274,-197
2914279,75
2914297,-109
2914408,-539
2914489,148
2914533,345
2914547,474
2914585,278
2914626,184
2914632,418
2914654,346
2914695,42
2914700,-212
2914719,-152
2914740,145
2914782,350
2914804,36
2914826,-38
2914867,143
2914888,335
2914910,92
2914951,-113
2914956,-121
2914974,-36
2914996,-48
2915038,-216
2915043,-402
2915061,-457
2915083,-383
2915125,-276
2915145,-321
2915167,-522
2915209,-778
2915214,-955
2915232,-951
2915254,-825
2915295,-778
2915300,-937
2915319,-1200
2915339,-1306
2915380,-1151
2915386,-881
2915404,-691
2915426,-647
2915566,-727
2915644,-877
2915688,-1307
2915730,-812
2915738,-1178
2915759,-1325
2915801,-1339
2915806,-1305
2915825,-1283
2915845,-1247
2915887,-1195
2915892,-1178
2915910,-1195
2915932,-1172
2915974,-1060
2915995,-783
2916016,-785
2916058,-795
2916063,-696
2916082,-516
2916103,-417
2916145,-521
2916166,-909
2916189,-882
2916230,-758
2916252,-805
2916273,-965
2916315,-1027
2916337,-814
2916357,-728
2916399,-688
2916404,-645
2916422,-613
2916444,-647
2916486,-740
2916491,-790
2916509,-737
2916887,-643
2917085,-268
2917168,-651
2917212,-652
2917254,-133
2917273,208
2917315,159
2917320,201
2917338,300
2917360,285
2917401,134
2917406,11
2917424,29
2917446,69
2917487,-31
2917492,-216
2917510,-257
2917532,-58
2917573,162
2917578,112
2917596,-191
2917618,-426
2917659,-312
2917664,72
2917682,393
2917704,431
2917745,269
2917750,148
2917769,222
2917790,473
2917831,738
2917836,841
2917855,706
2917877,432
2917918,260
2918022,640
2918066,298
2918108,417
2918127,216
2918202,379
2918211,269
2918253,287
2918275,1150
2918297,1278
2918338,957
2918359,350
2918381,478
2918422,621
2918427,538
2918446,247
2918467,-71
2918508,-276
2918514,-322
2918532,-237
2918553,-82
2918595,43
2918600,40
2918618,-57
2918640,-114
2918681,-49
2918686,73
2918704,95
2918726,-26
2918767,-158
2918772,-174
2918790,-135
2918812,-223
2918853,-462
2918876,-607
2918897,-361
2918939,-217
2918959,-606
2918981,-709
2919022,-507
2919027,-165
2919046,47
2919162,49
2919275,10
2919320,-995
2919362,-466
2919380,-476
2919401,-330
2919443,37
2919448,345
2919466,309
2919487,19
2919529,-134
2919551,324
2919572,304
2919614,-3
2919636,94
2919657,611
2919699,868
2919704,725
2919721,569
2919742,847
2919784,1538
2919789,2234
2919808,2627
2919829,2838
2919871,3179
2919892,4329
2919914,4637
2919957,4619
2919977,4057
2919999,3566
2920042,2869
2920063,1180
2920085,403
2920128,-313
2920149,-1473
2920169,-1701
2920310,-1661
2920357,-1136
2920401,-853
2920440,-1133
2920484,-1237
2920503,-702
2920546,-752
2920567,-1205
2920589,-1170
2920632,-1034
2920653,-1153
2920673,-1264
2920716,-1219
2920737,-948
2920759,-885
2920802,-856
2920823,-880
2920844,-911
2920887,-857
2920906,-648
2920928,-757
2920971,-943
2920992,-714
2921014,-292
2921057,9
2921077,-77
2921099,-167
2921142,-169
2921163,-111
2921184,-97
2921227,-153
2921248,-581
2921269,-621
2921313,-345
2921332,270
2921444,172
2921528,288
2921573,119
2921582,-167
2921620,-67
2921663,236
2921669,436
2921689,249
2921732,100
2921753,152
2921774,257
2921817,364
2921838,453
2921859,421
2921903,410
2921923,556
2921943,524
2921987,359
2922007,97
2922029,139
2922072,169
2922092,-47
2922193,-82
2922238,238
2922283,413
2922327,581
2922344,157
2922366,198
2922409,369
2922429,322
2922451,116
2922592,-1
2922639,211
2922683,235
2922700,-231
2922744,-345
2922764,-421
2922786,-441
2922829,-412
2922850,-426
2922871,-537
2922915,-556
2922934,-156
2922972,-157
2923015,-443
2923021,-853
2923041,-692
2923084,-545
2923103,-857
2923127,-1037
2923169,-1038
2923189,-873
2923210,-934
2923252,-1092
2923258,-1282
2923275,-1423
2923296,-1460
2923339,-1410
2923344,-1344
2923361,-1312
2923382,-1280
2923425,-1141
2923447,-725
2923469,-757
2923510,-975
2923531,-1172
2923553,-1059
2923595,-1029
2923616,-1411
2923729,-1512
2923811,-1033
2923855,-1115
2923866,-1015
2923888,-991
2923930,-1031
2923935,-1085
2923953,-1057
2923973,-912
2924048,-770
2924058,-1042
2924100,-1003
2924105,-888
2924123,-883
2924145,-1026
2924187,-1130
2924207,-839
2924229,-785
2924271,-907
2924276,-970
2924294,-771
2924316,-438
2924358,-297
2924378,-751
2924400,-847
2924441,-692
2924446,-501
2924465,-503
2924486,-724
2924528,-997
2924533,-1114
2924552,-978
2924573,-707
2924615,-524
2924636,-794
2924657,-949
2924699,-919
2924704,-800
2924722,-768
2924744,-849
2924884,-930
2924930,-502
2924972,-684
2924993,-700
2925035,-606
2925073,-529
2925079,-453
2925121,-443
2925126,-385
2925144,-298
2925166,-303
2925207,-517
2925228,-1100
2925249,-1059
2925291,-858
2925296,-751
2925315,-800
2925336,-846
2925378,-704
2925400,-155
2925422,-92
2925464,-178
2925484,-400
2925506,-477
2925547,-551
2925553,-602
2925571,-619
2925592,-628
2925634,-644
2925655,-679
2925676,-659
2925718,-624
2925723,-601
2925742,-572
2925763,-492
2925805,-351
2925810,-201
2925827,-140
2925850,-165
2925892,-167
2925912,90
2926024,120
2926138,16
2926182,683
2926225,878
2926246,678
2926267,400
2926309,284
2926330,529
2926352,503
2926394,351
2926399,311
2926417,505
2926439,770
2926481,840
2926502,485
2926523,550
2926565,809
2926570,1002
2926589,968
2926610,840
2926652,843
2926673,1160
2926695,1122
2926737,954
2926758,915
2926779,995
2926822,960
2926842,884
2926864,1138
2926906,1426
2926911,1485
2926930,1294
2926951,1145
2926994,1303
2927014,1870
2927035,1760
2927176,1577
2927222,2474
2927266,2954
2927286,3002
2927361,3237
2927370,3580
2927413,3642
2927434,3794
2927456,3819
2927499,3855
2927518,3925
2927540,3921
2927584,3932
2927603,3953
2927624,3991
2927668,4191
2927689,5171
2927711,5701
2927754,6170
2927774,7156
2927795,7598
2927839,7850
2927858,7888
2927880,7744
2927923,7396
2927944,6138
2927966,5453
2928009,4785
2928028,3371
2928050,2835
2928093,2526
2928114,1993
2928136,1651
2928179,1505
2928198,1933
2928308,2060
2928392,2278
2928438,1936
2928449,1672
2928470,1350
2928546,1117
2928555,1314
2928597,1385
2928618,1266
2928640,1253
2928683,1398
2928703,1809
2928725,1765
2928768,1550
2928789,1165
2928809,1091
2928852,1021
2928873,1005
2928894,1178
2928937,1338
2928958,1207
2928980,1179
2929023,1365
2929044,1621
2929065,1399
2929108,1231
2929127,1706
2929149,1870
2929192,1733
2929213,1732
2929235,2126
2929278,2360
2929299,1877
2929320,1770
2929462,1971
2929508,1818
2929552,2024
2929570,2137
2929613,2081
2929634,1976
2929655,2066
2929698,2118
2929737,1852
2929742,1797
2929785,1934
2929804,2131
2929824,1939
2929867,1713
2929888,1703
2929909,1719
2929952,1570
2929973,1206
2929995,1315
2930038,1587
2930058,1738
2930080,1505
2930123,1360
2930144,1631
2930165,1583
2930208,1268
2930229,845
2930250,971
2930293,1041
2930314,819
2930335,857
2930378,945
2930399,560
2930420,353
2930463,414
2930484,568
2930596,293
2930680,399
2930725,256
2930734,-92
2930756,-151
2930799,43
2930820,263
2930841,-11
2930884,-285
2930923,-43
2930928,165
2930970,88
2930989,-475
2931010,-413
2931052,-98
2931057,199
2931075,255
2931097,88
2931138,-130
2931143,-276
2931162,-390
2931183,-515
2931225,-626
2931247,-652
2931268,-684
2931310,-788
2931332,-762
2931353,-487
2931395,-211
2931400,-132
2931418,-313
2931440,-607
2931481,-793
2931503,-664
2931525,-667
2931566,-849
2931588,-1113
2931608,-936
2931748,-704
2931793,-610
2931835,-749
2931841,-727
2931861,-687
2931902,-773
2931924,-1000
2931944,-876
2931986,-723
2932143,-746
2932226,-895
2932269,-574
2932278,-416
2932320,-186
2932342,-238
2932364,-264
2932405,-178
2932426,-215
2932448,-364
2932489,-419
2932494,-388
2932513,-440
2932534,-637
2932576,-840
2932581,-873
2932599,-762
2932621,-710
2932662,-794
2932667,-841
2932684,-689
2932707,-415
2932749,-252
2932769,-264
2932879,-114
2932960,-931
2933036,-892
2933080,-485
2933122,-504
2933128,-874
2933169,-873
2933189,-784
2933210,-899
2933252,-1137
2933272,-1412
2933294,-1257
2933369,-1042
2933379,-773
2933420,-527
2933425,-309
2933444,-318
2933465,-517
2933507,-630
2933528,-209
2933549,-141
2933591,-417
2933596,-794
2933614,-909
2933636,-645
2933677,-254
2933682,-62
2933701,-148
2933722,-304
2933764,-316
2933769,-177
2933787,-53
2933808,-57
2933850,-146
2933855,-207
2933873,-234
2933895,-293
2934034,-404
2934079,-211
2934121,-192
2934127,50
2934145,55
2934186,41
2934191,-20
2934209,-180
2934231,-348
2934272,-341
2934277,-144
2934295,-29
2934333,-256
2934374,-756
2934381,-1115
2934401,-728
2934442,-333
2934448,-208
2934466,-323
2934488,-443
2934528,-376
2934534,-116
2934553,135
2934575,127
2934616,-201
2934621,-624
2934639,-822
2934660,-690
2934700,-462
2934706,-408
2934725,-515
2934747,-528
2934788,-302
2934793,-13
2934811,52
2934833,-144
2934874,-389
2934879,-486
2934897,-427
2934919,-330
2934960,-250
2934965,-186
2934983,-124
2935005,-46
2935046,113
2935051,400
2935069,723
2935180,897
2935259,1218
2935335,2765
2935342,3674
2935384,3627
2935403,2931
2935424,2324
2935466,1607
2935471,824
2935489,60
2935510,-563
2935552,-966
2935574,-1329
2935594,-1430
2935636,-1446
2935641,-1325
2935660,-1117
2935681,-971
2935723,-985
2935744,-1219
2935765,-1206
2935808,-1133
2935813,-1163
2935830,-1379
2935851,-1641
2935894,-1679
2935899,-1384
2935917,-970
2935937,-789
2935980,-974
2935985,-1278
2936003,-1324
2936025,-1023
2936067,-680
2936088,-962
2936109,-1305
2936152,-1348
2936172,-802
2936210,-767
2936351,-979
2936398,-1165
2936441,-924
2936447,-906
2936489,-1017
2936508,-842
2936530,-689
2936572,-645
2936593,-735
2936614,-702
2936657,-659
2936677,-688
2936699,-689
2936741,-688
2936746,-764
2936765,-926
2936786,-1070
2936828,-1090
2936849,-925
2936871,-979
2936913,-1085
2936934,-903
2936955,-628
2936998,-427
2937019,-467
2937040,-557
2937083,-604
2937105,-645
2937126,-708
2937169,-768
2937189,-819
2937211,-800
2937253,-721
2937274,-350
2937296,-187
2937371,-141
2937379,-225
2937520,-180
2937566,-548
2937610,-488
2937631,-640
2937673,-618
2937694,-425
2937716,-452
2937758,-624
2937779,-992
2937799,-982
2937842,-903
2937864,-1013
2937886,-1208
2937928,-1376
2937949,-1360
2937971,-1165
2938014,-943
2938034,-774
2938056,-813
2938099,-774
2938118,-528
2938140,-560
2938182,-751
2938203,-1203
2938225,-1339
2938268,-1417
2938289,-1392
2938310,-1327
2938353,-1281
2938374,-1185
2938396,-1184
2938439,-1329
2938460,-1784
2938480,-1771
2938655,-1645
2938741,-1335
2938786,-1769
2938792,-1847
2938814,-1817
2938857,-1814
2938878,-1792
2938899,-1645
2938942,-1493
2938962,-1555
2938984,-1652
2939026,-1645
2939047,-1470
2939068,-1479
2939110,-1533
2939115,-1533
2939133,-1462
2939155,-1366
2939196,-1278
2939202,-1189
2939220,-1082
2939240,-1014
2939281,-1058
2939287,-1198
2939305,-1311
2939327,-1316
2939368,-1259
2939373,-1254
2939391,-1329
2939413,-1362
2939454,-1247
2939459,-1040
2939478,-861
2939499,-723
2939573,-551
2939583,-361
2939624,-588
2939629,-695
2939647,-592
2939669,-435
2939808,-393
2939852,-379
2939893,-274
2939899,-713
2939921,-970
2939961,-868
2939966,-460
2939985,-113
2940006,-87
2940047,-235
2940052,-219
2940070,81
2940092,412
2940133,453
2940138,188
2940156,-78
2940178,-69
2940218,177
2940223,423
2940243,507
2940265,474
2940305,469
2940310,593
2940329,816
2940350,1035
2940391,1109
2940396,973
2940415,726
2940436,597
2940477,733
2940482,1029
2940500,1213
2940538,1124
2940579,896
2940587,913
2940608,1121
2940649,1211
2940654,1113
2940672,919
2940694,762
2940734,712
2940739,776
2940758,881
2940779,928
2940820,887
2940825,855
2940843,956
2940953,1152
2941032,1533
2941074,1018
2941093,1443
2941115,1425
2941155,1224
2941160,1124
2941181,1228
2941202,1359
2941242,1333
2941248,1190
2941266,1098
2941288,1096
2941328,1104
2941333,1091
2941352,1080
2941373,1029
2941413,847
2941419,557
2941439,403
2941460,563
2941500,879
2941538,943
2941544,200
2941585,138
2941590,436
2941610,671
2941631,510
2941671,71
2941676,-218
2941695,-149
2941716,69
2941756,158
2941762,98
2941781,113
2941803,312
2941843,541
2941848,601
2941867,518
2941890,490
2941930,634
2941935,776
2941953,679
2941975,346
2942114,58
2942157,-156
2942198,605
2942204,777
2942226,445
2942266,193
2942271,217
2942291,449
2942313,655
2942353,658
2942358,500
2942377,418
2942398,626
2942439,1111
2942444,1637
2942462,1986
2942484,2178
2942525,2417
2942563,2777
2942569,3215
2942610,3054
2942615,2789
2942634,2533
2942656,2223
2942697,1719
2942702,994
2942721,220
2942742,-405
2942783,-827
2942806,-1448
2942826,-1779
2942867,-1994
2942872,-1916
2942891,-1540
2942912,-1110
2942953,-905
2942959,-960
2942977,-1015
2942999,-860
2943040,-597
2943045,-532
2943063,-753
2943085,-955
2943126,-812
2943131,-413
2943149,-195
2943258,-404
2943337,-761
2943381,-1368
2943400,-1029
2943421,-899
2943462,-780
2943485,-809
2943506,-914
2943832,-885
2944012,-1253
2944092,-901
2944173,-872
2944216,-769
2944229,-668
2944251,-614
2944390,-467
2944435,-50
2944476,138
2944482,-347
2944502,-465
2944543,-305
2944548,-86
2944567,-74
2944588,-239
2944629,-273
2944634,-65
2944652,145
2944674,62
2944715,-273
2944720,-512
2944738,-441
2944760,-271
2944801,-323
2944806,-596
2944824,-756
2944846,-610
2944887,-372
2944892,-383
2944911,-640
2944932,-836
2944973,-778
2944978,-635
2944997,-692
2945018,-940
2945059,-1103
2945097,-1018
2945104,-781
2945145,-921
2945150,-1054
2945168,-1034
2945190,-901
2945231,-811
2945236,-810
2945255,-845
2945276,-899
2945317,-1010
2945322,-1191
2945341,-1345
2945361,-1361
2945402,-1250
2945407,-1143
2945426,-1125
2945536,-1167
2945616,-989
2945659,-1266
2945677,-1477
2945697,-1569
2945738,-1554
2945744,-1563
2945762,-1727
2945784,-1961
2945825,-2046
2945830,-1917
2945849,-1756
2945870,-1807
2945912,-2064
2945933,-2222
2945954,-1996
2945996,-1815
2946034,-1782
2946040,-1855
2946081,-1927
2946087,-2099
2946105,-2334
2946127,-2498
2946168,-2528
2946189,-2602
2946211,-2830
2946252,-3050
2946257,-3090
2946276,-2911
2946298,-2678
2946339,-2597
2946344,-2785
2946362,-3104
2946382,-3294
2946423,-3219
2946428,-2996
2946448,-2900
2946470,-3028
2946510,-3214
2946515,-3219
2946534,-3019
2946555,-2845
2946694,-2877
2946737,-3003
2946778,-2697
2946785,-2594
2946807,-2692
2946847,-2593
2946852,-2319
2946870,-2146
2946892,-2243
2946932,-2456
2946970,-2474
2946978,-2022
2947017,-2051
2947022,-2263
2947042,-2387
2947064,-2291
2947104,-2133
2947109,-2143
2947127,-2275
2947149,-2309
2947189,-2159
2947194,-1956
2947214,-1880
2947236,-1893
2947275,-1833
2947280,-1643
2947301,-1483
2947322,-1522
2947362,-1691
2947367,-1783
2947387,-1712
2947407,-1621
2947446,-1662
2947452,-1770
2947472,-1747
2947494,-1584
2947533,-1510
2947538,-1678
2947558,-1902
2947580,-1856
2947620,-1515
2947625,-1237
2947645,-1339
2947667,-1658
2947837,-1750
2947916,-1687
2947958,-1389
2947977,-1053
2947999,-1120
2948038,-1182
2948044,-1223
2948063,-1301
2948085,-1384
2948125,-1391
2948130,-1314
2948150,-1256
2948172,-1289
2948211,-1337
2948216,-1272
2948235,-1082
2948256,-903
2948296,-872
2948301,-991
2948321,-1136
2948343,-1177
2948382,-1085
2948388,-921
2948407,-777
2948429,-707
2948469,-710
2948474,-734
2948494,-719
2948515,-660
2948555,-607
2948560,-620
2948580,-686
2948601,-704
2948641,-621
2948646,-502
2948684,-467
2948689,-550
2948729,-629
2948734,-526
2948752,-248
2948774,-40
2948814,-166
2948819,-595
2948837,-962
2948859,-934
2948997,-559
2949041,-117
2949081,-158
2949089,-386
2949110,-393
2949150,-501
2949155,-663
2949175,-679
2949197,-484
2949236,-242
2949242,-166
2949261,-263
2949283,-331
2949323,-235
2949328,-72
2949348,-31
2949369,-113
2949409,-132
2949414,46
2949434,299
2949454,354
2949494,166
2949499,6
2949519,158
2949540,566
2949581,871
2949586,837
2949624,613
2949629,543
2949669,750
2949690,1136
2949711,1169
2949752,1360
2949757,1763
2949777,2147
2949799,2346
2949839,2502
2949844,2894
2949863,3560
2949885,4187
2949926,4442
2949931,4369
2949949,4326
2949969,4593
2950011,5072
2950016,5375
2950035,5213
2950143,4653
2950225,2535
2950268,606
2950284,475
2950306,226
2950347,246
2950352,594
2950371,979
2950392,1108
2950434,999
2950439,897
2950457,933
2950479,1040
2950520,1078
2950541,1034
2950563,1145
2950604,1328
2950609,1479
2950647,1542
2950652,1512
2950694,1412
2950713,1199
2950735,1156
2950776,1170
2950781,1168
2950799,1081
2950821,931
2950862,828
2950885,1108
2950906,1292
2950947,1283
2950970,982
2950990,1104
2951031,1410
2951036,1649
2951055,1638
2951076,1433
2951117,1243
2951122,1166
2951141,1161
2951162,1142
2951301,1098
2951345,1373
2951387,1598
2951393,1436
2951413,1266
2951454,1271
2951459,1486
2951478,1736
2951499,1823
2951540,1730
2951545,1614
2951564,1656
2951586,1851
2951627,1990
2951665,1892
2951671,1273
2951712,1204
2951717,1380
2951734,1615
2951755,1729
2951796,1693
2951801,1647
2951820,1698
2951842,1781
2951883,1763
2951888,1604
2951906,1391
2951928,1199
2951969,1029
2951974,868
2951992,777
2952014,859
2952055,1097
2952060,1307
2952078,1315
2952100,1172
2952141,1104
2952146,1239
2952164,1413
2952186,1364
2952227,1044
2952232,668
2952250,491
2952272,552
2952313,683
2952318,714
2952336,661
2952446,639
2952525,985
2952568,1058
2952587,993
2952625,867
2952666,891
2952672,1198
2952694,1239
2952735,1150
2952740,1004
2952758,904
2952780,961
2952821,1181
2952826,1411
2952844,1436
2952866,1239
2952907,1079
2952912,1170
2952930,1350
2952952,1252
2952993,800
2952998,397
2953017,478
2953038,899
2953079,1073
2953084,687
2953103,109
2953124,-74
2953165,246
2953170,589
2953188,474
2953210,-24
2953250,-436
2953255,-465
2953274,-264
2953295,-134
2953336,-185
2953341,-299
2953361,-321
2953382,-230
2953423,-97
2953428,-19
2953466,-19
2953471,-88
2953610,-180
2953654,-405
2953694,-352
2953700,-72
2953718,-149
2953758,-399
2953764,-597
2953784,-520
2953805,-242
2953845,-86
2953850,-278
2953870,-656
2953892,-847
2953932,-702
2953937,-437
2953955,-345
2953977,-438
2954017,-491
2954022,-374
2954042,-189
2954063,-110
2954103,-144
2954108,-169
2954128,-127
2954150,-94
2954190,-161
2954195,-327
2954213,-471
2954235,-511
2954275,-460
2954280,-357
2954300,-257
2954322,-219
2954362,-207
2954367,-160
2954405,-34
2954410,120
2954450,194
2954471,117
2954492,140
2954532,144
2954537,8
2954557,-211
2954579,-289
2954619,-95
2954624,207
2954642,326
2954756,176
2954855,94
2954896,-250
2954940,-391
2954981,-552
2954998,-330
2955038,-373
2955043,-569
2955062,-722
2955083,-670
2955123,-460
2955128,-308
2955148,-339
2955170,-484
2955210,-593
2955215,-564
2955235,-399
2955257,-232
2955296,-238
2955302,-491
2955320,-829
2955342,-953
2955381,-748
2955387,-454
2955406,-432
2955444,-742
2955484,-1059
2955492,-806
2955513,-621
2955553,-675
2955558,-783
2955578,-692
2955600,-426
2955640,-265
2955645,-386
2955663,-615
2955685,-656
2955725,-440
2955730,-175
2955750,-146
2955771,-423
2955910,-772
2955953,-535
2955994,-582
2956001,79
2956023,-102
2956063,-477
2956068,-675
2956086,-560
2956108,-310
2956148,-145
2956153,-86
2956173,-45
2956194,-24
2956234,-99
2956239,-260
2956259,-358
2956281,-298
2956321,-185
2956326,-232
2956346,-478
2956366,-732
2956439,-796
2956450,-491
2956490,-457
2956495,-392
2956515,-380
2956537,-509
2956577,-725
2956582,-856
2956601,-832
2956622,-775
2956662,-872
2956667,-1077
2956687,-1150
2956709,-937
2956749,-596
2956754,-438
2956773,-545
2956794,-670
2956835,-605
2956840,-451
2956860,-502
2956881,-829
2956921,-1146
2956927,-1166
2956945,-958
2957054,-833
2957132,-970
2957175,-850
2957195,-1247
2957217,-1098
2957257,-719
2957262,-559
2957281,-831
2957302,-1216
2957343,-1256
2957348,-925
2957386,-634
2957391,-703
2957432,-978
2957453,-833
2957474,-582
2957515,-550
2957520,-687
2957538,-760
2957560,-685
2957600,-601
2957605,-618
2957625,-707
2957647,-772
2957688,-777
2957693,-774
2957711,-788
2957733,-785
2957774,-721
2957779,-591
2957797,-393
2957819,-161
2957859,27
2957864,112
2957883,151
2957904,321
2957945,699
2957950,1106
2957969,1279
2957990,1222
2958031,1243
2958037,1633
2958055,2343
2958077,2989
2958217,3272
2958262,3682
2958304,2188
2958327,642
2958402,17
2958410,-1927
2958452,-2034
2958457,-2061
2958476,-2201
2958497,-2405
2958539,-2520
2958560,-2347
2958582,-2241
2958623,-2182
2958628,-2139
2958647,-2107
2958669,-2108
2958710,-2139
2958731,-2077
2958752,-1954
2958794,-1833
2958799,-1747
2958818,-1667
2958839,-1571
2958881,-1517
2958902,-1739
2958923,-1884
2958965,-1930
2958970,-1935
2958989,-2028
2959010,-2204
2959052,-2319
2959074,-2010
2959094,-1879
2959136,-1940
2959141,-2066
2959160,-2041
2959181,-1830
2959223,-1619
2959360,-1722
2959442,-1352
2959486,-1638
2959493,-1358
2959515,-1351
2959557,-1399
2959562,-1388
2959580,-1235
2959602,-903
2959643,-463
2959664,72
2959686,-31
2959727,-186
2959732,-181
2959751,-25
2959772,82
2959814,-13
2959819,-221
2959837,-341
2959858,-293
2959900,-196
2959905,-187
2959923,-255
2959945,-283
2959987,-200
2960007,25
2960029,41
2960070,77
2960075,178
2960094,299
2960115,364
2960156,387
2960162,414
2960180,450
2960202,409
2960243,284
2960248,204
2960286,309
2960291,562
2960333,730
2960352,447
2960373,399
2960513,587
2960559,434
2960601,177
2960622,620
2960664,794
2960669,580
2960687,190
2960709,-23
2960750,44
2960755,185
2960774,164
2960795,-4
2960837,-100
2960859,194
2960880,233
2960922,93
2960944,118
2960964,377
2961006,463
2961011,219
2961029,-166
2961051,-333
2961092,-178
2961097,60
2961116,82
2961137,-130
2961178,-339
2961183,-327
2961202,-157
2961223,-36
2961264,-65
2961269,-166
2961287,-243
2961309,-325
2961383,-470
2961393,-879
2961434,-1003
2961439,-1137
2961457,-1160
2961479,-1010
2961520,-801
2961525,-717
2961544,-786
2961655,-843
2961735,-1079
2961778,-798
2961794,-926
2961816,-888
2961857,-759
2961862,-649
2961880,-698
2961902,-930
2961943,-1223
2961948,-1367
2961967,-1286
2961987,-1089
2962028,-951
2962033,-953
2962051,-1020
2962073,-1061
2962114,-1031
2962119,-958
2962138,-881
2962159,-851
2962200,-921
2962206,-1123
2962224,-1344
2962246,-1378
2962287,-1141
2962292,-833
2962330,-765
2962335,-1006
2962376,-1236
2962396,-579
2962417,-144
2962458,-179
2962463,-603
2962482,-925
2962503,-809
2962544,-453
2962549,-331
2962568,-638
2962589,-1083
2962631,-1253
2962653,-676
2962674,-445
2962814,-400
2962859,171
2962900,-474
2962906,-541
2962925,-323
2962966,-274
2962971,-399
2962989,-422
2963011,-180
2963052,171
2963057,330
2963075,185
2963097,-88
2963137,-232
2963143,-170
2963161,2
2963184,120
2963225,81
2963230,-104
2963248,-285
2963270,-282
2963343,-18
2963353,298
2963394,-40
2963399,-134
2963417,138
2963439,504
2963479,598
2963484,368
2963504,104
2963526,42
2963567,101
2963572,65
2963590,-80
2963611,-105
2963652,107
2963657,360
2963676,391
2963697,250
2963738,242
2963743,528
2963761,847
2963783,839
2963824,515
2963829,235
2963847,243
2963957,368
2964036,637
2964079,265
2964098,539
2964120,148
2964160,-238
2964166,-236
2964184,55
2964205,206
2964246,5
2964251,-273
2964271,-266
2964292,6
2964333,179
2964371,35
2964376,-373
2964417,-221
2964422,-53
2964442,-93
2964463,-284
2964504,-401
2964509,-276
2964527,0
2964549,205
2964589,187
2964594,-14
2964613,-178
2964634,-120
2964675,125
2964680,334
2964700,304
2964721,72
2964762,-102
2964767,-70
2964785,52
2964807,43
2964847,-147
2964852,-326
2964872,-300
2964894,-135
2964934,-43
2964939,-111
2964957,-208
2964979,-145
2965118,70
2965161,117
2965203,392
2965208,-59
2965230,-211
2965270,-145
2965275,65
2965295,202
2965317,126
2965390,-92
2965400,129
2965440,396
2965446,498
2965466,448
2965487,395
2965528,430
2965533,541
2965551,678
2965573,814
2965613,909
2965618,867
2965637,641
2965737,339
2965781,171
2965822,-257
2965828,-131
2965868,-108
2965889,-160
2965910,-57
2965951,-26
2965956,-217
2965976,-505
2965997,-608
2966038,-434
2966043,-190
2966061,-140
2966083,-293
2966124,-439
2966129,-407
2966147,-212
2966255,23
2966334,-390
2966377,-308
2966398,-82
2966419,61
2966460,18
2966465,-116
2966883,-96
2967079,2988
2967162,2738
2967206,-39
2967248,-1456
2967389,-1272
2967434,-820
2967477,-1296
2967496,-1149
2967538,-1079
2967543,-981
2967561,-821
2967583,-643
2967624,-543
2967629,-554
2967648,-638
2967669,-768
2967711,-943
2967731,-1423
2967753,-1561
2967794,-1474
2967800,-1188
2967818,-864
2967840,-677
2967881,-632
2967886,-593
2967905,-457
2967926,-321
2967968,-376
2967990,-965
2968012,-1081
2968053,-1004
2968074,-946
2968095,-957
2968137,-827
2968142,-575
2968180,-362
2968185,-252
2968227,-176
2968246,47
2968267,50
2968309,-28
2968314,-73
2968332,-54
2968353,-103
2968395,-312
2968400,-551
2968417,-598
2968530,-398
2968611,324
2968655,232
2968667,454
2968689,478
2968730,361
2968735,288
2968754,340
2968775,400
2968817,351
2968822,286
2968840,399
2968862,675
2968903,830
2968925,308
2968947,96
2968988,209
2969010,676
2969032,656
2969074,532
2969094,524
2969116,650
2969157,741
2969162,725
2969181,620
2969202,553
2969243,621
2969281,741
2969287,535
2969328,294
2969333,230
2969353,354
2969374,430
2969415,270
2969420,-9
2969438,-99
2969460,158
2969500,584
2969505,864
2969524,841
2969545,639
2969685,475
2969729,126
2969771,368
2969776,687
2969796,526
2969837,371
2969842,412
2969861,579
2969882,651
2969923,517
2969928,254
2969947,19
2969968,-84
2970009,-39
2970014,104
2970034,279
2970055,366
2970096,302
2970101,148
2970120,58
2970141,114
2970182,223
2970187,213
2970205,46
2970227,-166
2970268,-308
2970306,-411
2970311,-828
2970352,-928
2970357,-774
2970377,-518
2970397,-465
2970438,-703
2970443,-920
2970463,-749
2970483,-211
2970524,212
2970529,100
2970549,-421
2970570,-808
2970611,-708
2970616,-307
2970634,-125
2970656,-408
2970696,-888
2970701,-1132
2970720,-1002
2970830,-743
2970909,-509
2970951,-555
2970970,-652
2970992,-510
2971032,-288
2971037,-132
2971057,-172
2971079,-356
2971119,-455
2971124,-304
2971143,23
2971164,209
2971205,45
2971210,-345
2971228,-615
2971266,-542
2971306,-241
2971314,-24
2971335,-139
2971376,-160
2971381,-14
2971401,209
2971421,397
2971461,536
2971466,615
2971486,587
2971508,432
2971549,261
2971554,257
2971572,459
2971594,696
2971634,769
2971639,672
2971658,572
2971679,573
2971720,616
2971725,575
2971744,462
2971765,418
2971806,527
2971811,692
2971831,741
2971853,648
2971992,559
2972037,783
2972078,832
2972084,1312
2972103,1181
2972144,935
2972149,811
2972167,872
2972189,979
2972230,1034
2972268,1064
2972274,1179
2972315,1160
2972320,1085
2972339,1063
2972360,1160
2972402,1295
2972407,1370
2972425,1387
2972447,1414
2972488,1492
2972509,1590
2972531,1645
2972572,1746
2972577,1803
2972596,1712
2972618,1553
2972659,1538
2972664,1755
2972681,2015
2972703,2065
2972744,1895
2972750,1758
2972768,1859
2972790,2105
2972831,2230
2972852,2035
2972874,2033
2972916,2123
2972921,2167
2972939,2107
2972961,2010
2973003,1957
2973023,2090
2973133,2213
2973215,2080
2973259,1906
2973297,2053
2973340,2057
2973357,2231
2973379,2297
2973421,2189
2973426,2021
2973445,2033
2973466,2276
2973508,2515
2973529,2200
2973550,1998
2973592,2084
2973597,2347
2973616,2459
2973637,2233
2973679,1856
2973700,1698
2973722,1870
2973763,1930
2973768,1855
2973787,1774
2973809,1795
2973850,1869
2973871,1752
2973893,1612
2973934,1505
2973939,1435
2973958,1365
2973979,1270
2974021,1144
2974026,1024
2974043,961
2974066,1019
2974107,1196
2974128,1381
2974150,1251
2974290,1122
2974367,747
2974411,766
2974453,742
2974463,1103
2974485,1159
2974526,1000
2974531,782
2974548,746
2974570,963
2974611,1229
2974616,1265
2974634,1033
2974656,747
2974697,657
2974702,826
2974721,1085
2974742,1224
2974783,1154
2974789,963
2974807,813
2974829,818
2974870,932
2974875,999
2974893,937
2974915,825
2974956,810
2974961,933
2974979,1090
2975001,1126
2975042,1059
2975047,1054
2975066,1209
2975087,1418
2975128,1503
2975134,1470
2975151,1515
2975172,1813
2975246,2291
2975256,3385
2975298,3867
2975303,4396
2975322,4692
2975430,4635
2975513,3659
2975557,1260
2975571,198
2975593,-269
2975635,-487
2975656,-430
2975678,-243
2975720,44
2975725,289
2975743,332
2975765,173
2975807,27
2975828,157
2975849,187
2975891,110
2975913,14
2975935,18
2975977,22
2975997,451
2976019,801
2976061,924
2976066,737
2976084,506
2976106,535
2976148,796
2976169,766
2976190,440
2976233,363
2976255,1041
2976275,1157
2976317,939
2976322,638
2976340,554
2976379,722
2976421,939
2976427,903
2976447,812
2976587,861
2976689,1258
2976735,1109
2976778,1483
2976784,1696
2976826,1563
2976844,1667
2976866,1901
2976908,1891
2976929,1170
2976951,1111
2976993,1390
2977014,1730
2977036,1637
2977078,1670
2977099,2078
2977121,2025
2977163,1807
2977184,1724
2977206,1786
2977249,1673
2977269,1231
2977289,1323
2977332,1622
2977353,1994
2977374,1902
2977417,1770
2977438,1845
2977460,1875
2977502,1718
2977523,1260
2977545,1321
2977587,1477
2977725,1247
2977807,1011
2977851,1231
2977857,1128
2977879,1186
2977921,1133
2977926,1040
2977944,1113
2977966,1341
2978008,1442
2978028,692
2978050,398
2978091,430
2978096,563
2978115,524
2978136,333
2978178,226
2978183,327
2978201,499
2978223,617
2978265,705
2978287,989
2978307,1036
2978349,924
2978354,747
2978372,587
2978394,427
2978435,233
2978440,110
2978459,153
2978480,293
2978522,317
2978544,-64
2978565,-28
2978607,225
2978628,306
2978649,5
2978690,-262
2978696,-377
2978734,-391
2978739,-337
2978879,-213
2978924,10
2978966,-417
2978987,-538
2979028,-490
2979049,-965
2979070,-1067
2979112,-833
2979117,-466
2979135,-307
2979157,-452
2979198,-674
2979203,-679
2979221,-441
2979243,-250
2979284,-378
2979289,-766
2979308,-1065
2979329,-1037
2979370,-809
2979376,-694
2979394,-797
2979415,-921
2979457,-825
2979462,-515
2979480,-227
2979502,-121
2979543,-157
2979548,-197
2979566,-219
2979588,-283
2979629,-396
2979634,-465
2979652,-419
2979690,-316
2979731,-272
2979737,-382
2979758,-317
2979799,-123
2979804,77
2979823,157
2979844,115
2979885,46
2979890,30
2979909,21
2980022,-91
2980101,-16
2980144,127
2980159,262
2980180,81
2980221,-18
2980226,43
2980246,155
2980267,196
2980309,145
2980314,48
2980332,-69
2980353,-180
2980394,-247
2980399,-258
2980418,-265
2980439,-366
2980480,-527
2980485,-599
2980504,-476
2980525,-258
2980566,-128
2980571,-163
2980590,-225
2980611,-155
2980652,34
2980657,167
2980676,105
2980714,-97
2980754,-236
2980760,-84
2980782,-41
2980823,-164
2980828,-377
2980846,-494
2980868,-403
2980909,-161
2980914,50
2980932,78
2980954,-69
2980995,-247
2981000,-304
2981018,-204
2981040,-45
2981179,47
2981224,-738
2981265,-761
2981271,-1482
2981292,-1676
2981334,-1536
2981355,-1175
2981377,-1331
2981418,-1460
2981423,-1347
2981442,-1107
2981463,-1085
2981504,-1420
2981527,-2022
2981547,-1852
2981588,-1601
2981593,-1512
2981612,-1578
2981633,-1601
2981675,-1455
2981713,-1162
2981719,-470
2981760,-307
2981765,-482
2981783,-958
2981805,-1420
2981846,-1526
2981851,-1256
2981870,-943
2981891,-919
2981932,-1181
2981938,-1420
2981956,-1376
2981976,-1064
2982017,-718
2982022,-583
2982041,-749
2982062,-1092
2982103,-1363
2982109,-1336
2982127,-1037
2982149,-787
2982190,-856
2982195,-1159
2982214,-1306
2982322,-1110
2982403,-1143
2982446,-814
2982463,-505
2982485,-343
2982526,-484
2982531,-842
2982550,-1178
2982571,-1352
2982613,-1333
2982651,-1160
2982657,-872
2982698,-940
2982703,-1014
2982720,-916
2982742,-641
2982783,-373
2982788,-269
2982806,-336
2982828,-447
2982869,-485
2982874,-447
2982893,-366
2982914,-287
2982956,-223
2982961,-191
2982979,-165
2983001,-113
2983042,-20
2983047,78
2983065,156
2983087,248
2983128,371
2983133,454
2983151,407
2983173,259
2983214,181
2983219,312
2983238,665
2983259,1141
2983301,1616
2983321,2504
2983343,2891
2983483,3225
2983528,1920
2983570,953
2983576,-589
2983594,-1293
2983669,-1588
2983679,-1987
2983722,-2361
2983742,-2369
2983764,-2082
2983807,-1878
2983828,-1927
2983850,-1924
2983893,-1775
2983912,-1307
2983934,-1302
2983977,-1489
2983998,-1548
2984019,-1322
2984063,-1238
2984082,-1643
2984104,-1674
2984147,-1474
2984168,-1291
2984189,-1395
2984233,-1380
2984252,-1005
2984274,-947
2984317,-985
2984337,-1044
2984359,-1104
2984402,-1187
2984423,-1205
2984445,-1186
2984488,-1201
2984507,-1122
2984618,-1044
2984702,-1026
2984747,-900
2984786,-799
2984830,-1047
2984842,-686
2984864,-658
2984907,-749
2984927,-669
2984947,-504
2984990,-392
2985013,-277
2985034,-241
2985077,-256
2985098,-260
2985119,-170
2985162,-134
2985182,-249
2985204,-193
2985247,-56
2985267,-50
2985289,-120
2985331,-74
2985352,56
2985373,-63
2985416,-225
2985438,-373
2985458,-357
2985500,-270
2985505,-80
2985524,107
2985545,127
2985588,-37
2985608,-95
2985630,173
2985771,342
2985817,102
2985861,-102
2985880,54
2985922,88
2985943,-11
2985981,-50
2986024,-136
2986029,-378
2986049,-308
2986092,-179
2986113,-486
2986134,-722
2986177,-686
2986199,-243
2986219,-303
2986262,-465
2986283,-476
2986306,-505
2986349,-664
2986369,-916
2986391,-1002
2986433,-1170
2986454,-1301
2986476,-1121
2986518,-1024
2986538,-1515
2986560,-1675
2986602,-1532
2986607,-1255
2986625,-1146
2986647,-1325
2986689,-1629
2986709,-1663
2986731,-1459
2986773,-1420
2986778,-1645
2986796,-1950
2986907,-2059
2986988,-2193
2987032,-1932
2987071,-1704
2987114,-1466
2987130,-1643
2987152,-1461
2987193,-1164
2987216,-1228
2987236,-1522
2987278,-1656
2987283,-1613
2987301,-1584
2987323,-1710
2987364,-1867
2987370,-1858
2987386,-1669
2987487,-1445
2987532,-934
2987574,-1290
2987618,-758
2987639,-1524
2987660,-1778
2987702,-1555
2987723,-1097
2987745,-1328
2987787,-1460
2987808,-794
2987829,-545
2987871,-581
2987876,-690
2987894,-682
2987916,-607
2988057,-618
2988102,-967
2988146,-592
2988166,-780
2988208,-462
2988247,-66
2988252,-452
2988294,-885
2988315,-657
2988336,-350
2988378,-331
2988400,-709
2988422,-640
2988464,-434
2988484,-196
2988506,-163
2988548,-112
2988553,-69
2988571,-72
2988592,-103
2988634,-129
2988655,-214
2988677,-303
2988718,-360
2988723,-366
2988742,-359
2988763,-373
2988805,-327
2988810,-112
2988828,204
2988850,342
2988892,125
2988912,-460
2988934,-262
2988975,30
2988980,4
2988998,-377
2989020,-708
2989061,-626
2989066,-222
2989085,77
2989196,38
2989277,400
2989353,525
2989359,573
2989401,817
2989420,771
2989441,562
2989483,559
2989505,833
2989525,674
2989566,447
2989571,465
2989589,766
2989611,1056
2989652,1089
2989657,961
2989676,968
2989697,1216
2989739,1484
2989744,1528
2989762,1364
2989784,1229
2989826,1280
2989848,1427
2989868,1253
2989910,1036
2989915,951
2989933,1025
2989955,1146
2989996,1242
2990002,1273
2990020,1283
2990040,1353
2990082,1481
2990087,1603
2990105,1647
2990127,1609
2990169,1598
2990191,1772
2990601,1717
2990801,1034
2990922,976
2990967,816
2991009,852
2991016,969
2991038,707
2991079,551
2991084,642
2991103,846
2991124,976
2991166,991
2991171,966
2991189,949
2991211,904
2991252,842
2991257,868
2991276,1074
2991296,1345
2991337,1479
2991342,1476
2991361,1600
2991382,2086
2991424,2797
2991429,3353
2991446,3521
2991468,3467
2991510,3502
2991515,3715
2991534,3926
2991554,3968
2991597,3875
2991617,3487
2991731,2993
2991814,459
2991859,-764
2991868,-509
2991890,-441
2991965,-318
2991974,-365
2992016,-493
2992037,-465
2992058,-523
2992101,-644
2992122,-527
2992144,-267
2992186,9
2992207,484
2992228,585
2992271,517
2992293,297
2992315,273
2992357,160
2992378,-193
2992400,-33
2992442,307
2992463,384
2992485,189
2992527,231
2992548,785
2992570,774
2992612,573
2992633,443
2992655,496
2992697,460
2992718,254
2992740,252
2992881,309
2992927,530
2992972,631
2992989,279
2993032,357
2993053,757
2993074,675
2993117,407
2993138,286
2993160,582
2993235,864
2993244,720
2993286,731
2993307,1095
2993329,1229
2993372,1210
2993393,995
2993414,1052
2993457,1188
2993476,1114
2993498,999
2993541,1076
2993562,1475
2993584,1319
2993627,994
2993648,1106
2993669,1488
2993712,1608
2993732,1032
2993753,1024
2993796,1356
2993817,1572
2993839,1226
2993882,987
2993902,1263
2994015,1308
2994098,962
2994142,955
2994152,904
2994173,1274
2994216,1678
2994238,1410
2994260,1012
2994302,952
2994323,1520
2994345,1366
2994387,912
2994425,766
2994430,1120
2994472,1250
2994493,790
2994515,795
2994557,980
2994577,849
2994599,564
2994641,373
2994646,258
2994664,137
2994686,40
2994727,111
2994750,521
2994771,435
2994813,183
2994834,137
2994855,316
2994897,340
2994902,167
2994920,-52
2994942,-139
2994984,-46
2995004,221
2995026,198
2995166,97
2995211,11
2995253,109
2995259,405
2995277,151
2995319,-194
2995324,-325
2995342,-154
2995364,85
2995405,69
2995410,-258
2995429,-586
2995450,-581
2995492,-231
2995530,80
2995535,-258
2995577,-539
2995598,-213
2995619,-92
2995660,-286
2995666,-575
2995684,-633
2995705,-403
2995747,-109
2995752,21
2995770,-1
2995792,-26
2995833,-1
2995838,10
2995856,-65
2995877,-195
2995919,-280
2995924,-285
2995942,-231
2995964,-156
2996005,-69
2996010,-9
2996029,-29
2996050,-108
2996091,-141
2996096,-36
2996115,163
2996136,267
2996178,172
2996183,-29
2996201,-118
2996309,26
2996390,-78
2996433,-136
2996451,-11
2996472,206
2996514,283
2996519,191
2996557,81
2996562,98
2996603,207
2996622,224
2996644,90
2996685,-61
2996690,-186
2996708,-224
2996730,-126
2996771,90
2996793,351
2996815,183
2996856,-74
2996879,-213
2996899,-67
2996940,47
2996945,2
2996965,-163
2996986,-300
2997028,-276
2997048,115
2997070,196
2997111,136
2997116,53
2997135,56
2997156,131
2997197,200
2997202,196
2997221,146
2997242,125
2997284,155
2997289,172
2997307,70
2997328,-126
2997468,-242
2997513,-393
2997556,319
2997561,171
2997580,-94
2997654,-60
2997664,431
2997706,283
2997711,185
2997727,208
2997751,281
2997792,304
2997813,125
2997834,131
2997876,285
2997881,494
2997900,580
2997921,490
2997963,379
2997985,509
2998007,522
2998048,431
2998069,667
2998091,981
2998132,1124
2998137,1069
2998156,1067
2998178,1277
2998219,1540
2998240,1225
2998340,880
2998385,736
2998427,1148
2998471,1716
2998491,2002
2998602,2185
2998684,1211
2998728,1717
2998741,2214
2998763,2100
2998805,2037
2998810,2194
2998827,2416
2998865,2418
2998907,2124
2998913,1599
2998935,1655
2998977,1693
2998998,1509
2999020,1617
2999062,1904
2999083,1961
2999104,1737
2999147,1777
2999167,2479
2999189,2283
2999231,1639
2999252,1158
2999274,1569
2999316,1790
2999321,1545
2999340,1095
2999360,886
2999402,1058
2999407,1395
2999425,1639
2999447,1714
2999489,1648
2999510,1095
2999532,823
2999573,803
2999596,1090
2999617,919
2999758,611
2999803,989
2999846,845
2999867,669
2999908,939
2999914,1337
2999932,1678
2999970,1928
3000012,2214
3000018,2958
3000038,3253
3000080,3509
3000101,4065
3000123,4161
3000166,4005
3000186,3400
3000208,3229
3000251,3146
3000272,2630
3000294,1952
3000337,1138
3000356,331
3000377,374
3000420,265
3000441,-712
3000462,-955
3000505,-837
3000526,-564
3000547,-677
3000590,-747
3000611,-549
3000633,-479
3000676,-469
3000696,-317
3000718,-183
3000761,-114
3000782,-95
3000894,39
3000978,61
3001024,-393
3001031,-437
3001053,-154
3001096,-127
3001117,-558
3001139,-413
3001215,-13
3001223,674
3001266,751
3001286,791
3001307,710
3001350,637
3001371,511
3001393,380
3001436,240
3001456,149
3001478,134
3001521,92
3001540,158
3001562,312
3001605,462
3001626,697
3001647,920
3001690,1165
3001711,1206
3001733,1039
3001776,888
3001797,616
3001818,432
3001861,307
3001880,227
3001902,123
3002044,69
3002090,447
3002135,1046
3002153,751
3002196,832
3002216,1436
3002238,1546
3002281,1498
3002302,1366
3002324,1246
3002367,1031
3002386,749
3002424,775
3002468,769
3002473,655
3002493,777
3002537,996
3002557,1138
3002579,1070
3002621,1041
3002642,902
3002664,757
3002706,731
3002726,1025
3002748,936
3002790,644
3002795,439
3002812,551
3002835,838
3002877,950
3002898,494
3002920,453
3002962,621
3002982,620
3003004,501
3003046,602
3003051,865
3003070,957
3003180,716
3003261,1027
3003305,768
3003320,562
3003341,476
3003383,317
3003404,-404
3003425,-614
3003467,-499
3003472,-190
3003491,8
3003512,-51
3003554,-244
3003712,-332
3003796,-297
3003840,-336
3003846,-160
3003888,-240
3003909,-298
3003930,-97
3003973,117
3003993,133
3004015,181
3004057,402
3004077,613
3004099,365
3004141,173
3004146,276
3004165,597
3004186,814
3004327,745
3004373,436
3004416,256
3004435,58
3004478,4
3004483,217
3004501,625
3004522,948
3004565,985
3004585,750
3004607,924
3004649,1213
3004670,1149
3004692,784
3004734,522
3004739,477
3004757,587
3004779,706
3004821,717
3004842,554
3004863,529
3004905,589
3004944,785
3004949,839
3004991,877
3005012,1031
3005034,1040
3005076,923
3005097,794
3005118,1050
3005161,1316
3005181,811
3005203,388
3005245,405
3005250,809
3005268,1095
3005290,903
3005332,473
3005353,770
3005465,1268
3005546,1513
3005591,1582
3005603,1628
3005625,1655
3005667,1931
3005688,2411
3005710,2235
3005753,2089
3005773,2604
3005795,2799
3005838,2686
3005859,2390
3005880,2533
3005923,2747
3005942,3052
3005964,3160
3006007,3176
3006028,2927
3006050,2958
3006093,3144
3006132,3036
3006137,2663
3006181,2481
3006199,2888
3006220,2874
3006264,2605
3006283,2578
3006305,2933
3006348,3110
3006369,2819
3006391,2931
3006434,3303
3006453,3490
3006475,3087
3006618,2764
3006665,2509
3006710,3067
3006724,2552
3006768,2457
3006789,2520
3006810,2317
3006854,2042
3006873,1910
3006895,1997
3006939,2043
3006959,1791
3006981,1613
3007024,1593
3007044,2007
3007065,2024
3007109,1781
3007129,1482
3007149,1693
3007193,1917
3007214,1896
3007235,1787
3007312,1650
3007320,1462
3007363,1721
3007382,1763
3007404,1524
3007447,1473
3007468,1996
3007489,2022
3007533,1808
3007553,1540
3007575,1522
3007618,1416
3007639,1332
3007751,1496
3007834,2229
3007880,2146
3007888,2441
3007909,2375
3007953,2087
3007974,1719
3007995,1847
3008039,2031
3008058,1992
3008079,1807
3008123,1697
3008144,1891
3008165,1976
3008209,1874
3008228,1679
3008249,1927
3008293,2280
3008314,2398
3008335,2284
3008379,2317
3008398,2503
3008420,2360
3008463,2189
3008502,2469
3008507,2873
3008551,3353
3008568,4399
3008590,4741
3008634,4828
3008653,4897
3008675,5086
3008719,5066
3008738,3758
3008760,2970
3008903,2491
3008950,-479
3008996,-683
3009010,-433
3009054,-226
3009074,89
3009173,287
3009220,175
3009265,-21
3009310,-26
3009325,-13
3009347,-64
3009391,-112
3009410,25
3009432,122
3009476,136
3009495,16
3009516,44
3009561,136
3009580,91
3009601,-93
3009645,-177
3009664,239
3009686,379
3009730,262
3009751,-38
3009772,83
3009849,196
3009856,-236
3009900,-205
3009919,34
3010031,49
3010118,263
3010164,353
3010170,584
3010192,496
3010236,368
3010255,483
3010276,643
3010320,725
3010339,662
3010361,650
3010405,715
3010424,886
3010446,855
3010489,744
3010510,647
3010532,734
3010575,836
3010594,898
3010616,910
3010660,956
3010679,966
3010700,854
3010744,701
3010765,497
3010786,464
3010830,443
3010849,441
3010871,536
3010915,721
3010935,1128
3010957,1131
3011001,928
3011020,420
3011042,467
3011217,674
3011303,824
3011347,498
3011353,254
3011374,34
3011416,-16
3011438,140
3011460,110
3011502,45
3011523,185
3011544,281
3011586,200
3011591,-61
3011609,-308
3011631,-376
3011673,-294
3011694,-434
3011715,-733
3011757,-909
3011780,-519
3011801,-339
3011844,-411
3011864,-738
3011886,-710
3011928,-677
3011949,-1112
3011970,-1314
3012013,-1235
3012034,-878
3012055,-1072
3012098,-1333
3012120,-838
3012140,-452
3012182,-594
3012188,-1232
3012204,-1803
3012226,-1829
3012400,-1420
3012486,-821
3012530,-975
3012538,-1645
3012560,-1635
3012603,-1312
3012623,-843
3012645,-1003
3012688,-1159
3012708,-727
3012730,-477
3012773,-533
3012793,-1094
3012815,-1104
3012858,-918
3012878,-719
3012900,-792
3012943,-807
3012963,-381
3012985,-138
3013027,-85
3013048,-527
3013070,-676
3013112,-609
3013133,-412
3013154,-619
3013197,-902
3013218,-752
3013239,-421
3013282,-235
3013304,-353
3013326,-366
3013368,-284
3013389,-182
3013411,-229
3013552,-327
3013631,-599
3013676,-330
3013719,-161
3013725,21
3013744,15
3013786,-23
3013808,19
3013829,-3
3013871,-149
3013876,-343
3013895,-440
3013916,-361
3013959,-188
3013979,-109
3014001,-255
3014043,-372
3014064,-273
3014085,-145
3014128,-76
3014148,-127
3014170,-152
3014212,-93
3014217,56
3014235,242
3014257,356
3014299,308
3014320,-12
3014341,-60
3014383,-21
3014388,-22
3014406,-119
3014428,-242
3014469,-268
3014474,-157
3014491,-10
3014514,91
3014556,161
3014577,325
3014688,301
3014803,72
3014847,185
3014890,-134
3014911,-104
3014932,-59
3014974,-85
3014995,-205
3015016,-196
3015058,-108
3015063,65
3015082,254
3015103,340
3015145,276
3015167,184
3015187,339
3015229,452
3015234,305
3015253,-78
3015274,-441
3015316,-568
3015338,-489
3015360,-589
3015402,-706
3015423,-613
3015444,-518
3015486,-440
3015507,-155
3015529,-64
3015571,-94
3015576,-120
3015594,-9
3015615,175
3015657,210
3015678,-160
3015700,-154
3015841,-10
3015886,-450
3015930,-362
3016241,-456
3016405,-132
3016489,-155
3016534,345
3016577,242
3016591,-209
3016612,-247
3016655,-145
3016676,-80
3016697,-347
3016740,-626
3016762,-314
3016783,37
3016826,89
3016846,-426
3016957,-386
3017040,91
3017084,-47
3017097,-24
3017118,-128
3017161,-218
3017181,10
3017203,139
3017245,204
3017266,524
3017288,684
3017330,687
3017351,823
3017372,1066
3017415,1105
3017436,740
3017457,1009
3017500,1531
3017521,1556
3017542,1277
3017585,1511
3017607,3080
3017629,3481
3017704,3537
3017712,4258
3017754,4539
3017775,4411
3017797,3930
3017839,3313
3017860,2370
3017882,1917
3017924,1251
3017929,475
3017947,-80
3017969,-288
3018110,-379
3018156,-342
3018201,-180
3018219,226
3018262,58
3018283,-60
3018304,62
3018347,50
3018366,-260
3018388,-252
3018431,-165
3018452,-259
3018473,-389
3018517,-425
3018536,-178
3018558,-33
3018601,45
3018622,75
3018643,154
3018687,253
3018707,124
3018729,-71
3018772,-171
3018791,-17
3018813,27
3018856,-38
3018895,-211
3018900,-161
3018944,9
3018962,305
3018984,242
3019028,139
3019046,233
3019068,287
3019112,232
3019132,288
3019244,522
3019329,466
3019375,292
3019382,183
3019404,225
3019448,394
3019467,668
3019488,597
3019532,528
3019552,713
3019574,757
3019617,636
3019638,447
3019659,499
3019702,476
3019722,267
3019744,459
3019785,829
3019791,1031
3019809,827
3019831,403
3019872,204
3019893,688
3019993,687
3020037,526
3020079,598
3020085,505
3020127,657
3020146,528
3020167,347
3020242,293
3020252,202
3020392,95
3020437,341
3020479,481
3020502,499
3020543,319
3020564,341
3020586,423
3020627,424
3020632,342
3020651,246
3020672,205
3020714,235
3020719,293
3020737,305
3020759,245
3020800,181
3020822,90
3020844,-81
3020885,-301
3020907,-323
3020929,-169
3020971,-133
3020991,-344
3021013,-325
3021054,-260
3021059,-272
3021078,-333
3021099,-313
3021141,-227
3021146,-236
3021164,-422
3021186,-659
3021228,-717
3021250,-482
3021270,-640
3021312,-963
3021350,-1143
3021356,-718
3021397,-596
3021420,-846
3021530,-712
3021612,-613
3021656,-744
3021670,-901
3021691,-836
3021733,-766
3021754,-466
3021775,-375
3021817,-509
3021822,-783
3021841,-906
3021862,-702
3021904,-345
3021925,-287
3021947,-507
3021988,-515
3021993,-206
3022012,189
3022033,317
3022075,78
3022096,-453
3022117,-311
3022159,-61
3022164,43
3022182,-17
3022204,-76
3022245,-48
3022250,-20
3022269,-89
3022290,-174
3022332,-152
3022337,-78
3022355,-153
3022393,-480
3022435,-841
3022440,-767
3022461,-603
3022502,-667
3022507,-871
3022526,-939
3022547,-774
3022687,-566
3022732,-499
3022774,-671
3022780,-719
3022799,-734
3022840,-736
3022861,-681
3022884,-658
3022925,-584
3022946,-142
3022968,34
3023009,53
3023014,-6
3023032,-18
3023054,22
3023095,-56
3023100,-337
3023119,-667
3023140,-811
3023182,-706
3023187,-543
3023205,-517
3023227,-610
3023269,-631
3023289,-424
3023311,-474
3023353,-622
3023358,-637
3023376,-417
3023414,-142
3023455,-72
3023461,-374
3023483,-217
3023524,135
3023546,139
3023568,-224
3023610,-421
3023630,-145
3023652,-115
3023694,-239
3023699,-329
3023717,-277
3023827,-142
3023908,61
3023951,94
3023967,-42
3023989,60
3024030,243
3024035,344
3024054,307
3024075,260
3024117,307
3024137,314
3024159,111
3024201,-56
3024205,-102
3024224,-127
3024245,-271
3024287,-454
3024292,-436
3024310,-142
3024332,190
3024374,281
3024378,173
3024395,141
3024418,331
3024460,579
3024481,363
3024519,59
3024560,-69
3024566,175
3024587,334
3024629,437
3024634,477
3024653,475
3024674,483
3024716,543
3024738,559
3024760,401
3024801,189
3024822,-129
3024843,-157
3024983,-38
3025028,276
3025070,497
3025076,-48
3025094,-277
3025136,-362
3025141,-356
3025159,-300
3025181,-211
3025222,-144
3025227,-203
3025246,-359
3025267,-484
3025309,-489
3025314,-437
3025332,-437
3025354,-516
3025395,-601
3025416,-595
3025439,-528
3025480,-391
3025501,-74
3025523,-81
3025564,-166
3025602,-183
3025608,-147
3025649,-313
3025654,-469
3025673,-431
3025694,-259
3025736,-204
3025741,-320
3025759,-354
3025781,-131
3025822,138
3025844,-351
3025866,-622
3025907,-387
3025928,285
3025950,-38
3025991,-372
3025996,-199
3026014,383
3026124,755
3026205,423
3026249,858
3026264,2180
3026286,2714
3026328,3117
3026333,3480
3026350,3843
3026372,4174
3026415,4398
3026436,4123
3026457,3633
3026500,3090
3026521,2124
3026543,1530
3026586,781
3026607,-560
3026627,-928
3026703,-1189
3026711,-1672
3026755,-1568
3026775,-1259
3026797,-1153
3026840,-1073
3026861,-1088
3026881,-1149
3026924,-1180
3026945,-1235
3026967,-1246
3027010,-1161
3027031,-926
3027052,-939
3027096,-906
3027115,-402
3027136,-348
3027278,-592
3027325,-1098
3027370,-691
3027387,-933
3027431,-589
3027451,-25
3027473,-377
3027516,-771
3027535,-461
3027557,-168
3027600,-151
3027620,-360
3027642,-254
3027685,-115
3027706,-134
3027727,-159
3027771,-137
3027791,-306
3027813,-514
3027889,-654
3027896,-281
3027939,-120
3027959,-166
3027981,-267
3028024,-197
3028045,360
3028067,355
3028110,51
3028130,-193
3028152,83
3028195,301
3028214,284
3028236,403
3028279,604
3028299,443
3028411,241
3028496,168
3028541,335
3028550,687
3028572,782
3028615,670
3028634,380
3028656,381
3028699,361
3028720,98
3028741,50
3028784,168
3028804,615
3028826,694
3028868,606
3028873,479
3028891,478
3028913,617
3028955,752
3028975,494
3028997,296
3029038,282
3029043,426
3029081,587
3029086,657
3029128,608
3029147,381
3029169,350
3029210,465
3029233,694
3029254,451
3029296,40
3029317,-149
3029338,106
3029380,252
3029385,158
3029403,-9
3029424,-27
3029564,94
3029609,-206
3029651,-466
3029657,-556
3029676,-617
3029717,-736
3029723,-852
3029741,-888
3029762,-830
3029804,-736
3029825,-690
3029847,-771
3029889,-851
3029894,-858
3029912,-802
3029932,-758
3029974,-775
3029979,-840
3029998,-886
3030019,-901
3030061,-901
3030082,-905
3030104,-937
3030179,-1016
3030187,-767
3030230,-548
3030252,-972
3030274,-1274
3030316,-1180
3030337,-448
3030358,-538
3030401,-899
3030422,-931
3030443,-520
3030486,-238
3030506,-505
3030528,-691
3030570,-690
3030591,-379
3030702,-355
3030785,-866
3030857,-515
3030901,-656
3030945,-323
3030989,-346
3031009,-255
3031031,-236
3031073,-270
3031094,-475
3031115,-524
3031158,-455
3031178,-268
3031200,-433
3031242,-726
3031247,-868
3031264,-654
3031287,-204
3031329,111
3031350,-332
3031388,-572
3031430,-478
3031436,-236
3031456,-520
3031498,-848
3031519,-750
3031542,-573
3031584,-537
3031605,-349
3031627,-144
3031669,-123
3031690,-571
3031711,-634
3031851,-581
3031897,-629
3031940,-511
3031961,-205
3032003,-422
3032008,-654
3032027,-722
3032048,-637
3032090,-533
3032111,-487
3032133,-417
3032175,-315
3032197,-261
3032218,-330
3032260,-407
3032281,-498
3032302,-501
3032344,-458
3032349,-382
3032368,-304
3032389,-249
3032431,-196
3032452,-24
3032473,63
3032548,85
3032558,-223
3032600,-331
3032622,-410
3032643,-409
3032685,-435
3032706,-447
3032727,-341
3032769,-227
3032774,-225
3032793,-376
3032814,-568
3032856,-640
3032878,-416
3032989,-393
3033070,99
3033114,-91
3033128,205
3033150,99
3033191,-303
3033212,-837
3033234,-663
3033275,-501
3033280,-592
3033299,-823
3033321,-882
3033362,-650
3033383,-285
3033405,-454
3033446,-589
3033451,-515
3033470,-336
3033491,-264
3033533,-344
3033554,-361
3033576,-274
3033617,-289
3033655,-390
3033661,-291
3033703,-143
3033708,-143
3033726,-268
3033748,-354
3033790,-304
3033810,-139
3033832,-140
3033874,-149
3033879,-172
3033897,-254
3033919,-369
3033961,-379
3033981,58
3034003,170
3034143,94
3034188,401
3034230,122
3034236,-266
3034254,-464
3034296,-498
3034301,-405
3034320,-361
3034341,-451
3034383,-526
3034404,-93
3034425,120
3034467,39
3034472,-234
3034491,-434
3034512,-451
3034554,-401
3034575,-599
3034596,-714
3034638,-708
3034643,-622
3034681,-522
3034686,-405
3034729,-266
3034746,-160
3034768,-179
3034810,-137
3034832,-164
3034853,-458
3034896,-737
3034916,-326
3034938,-60
3034980,-185
3035002,-565
3035023,-94
3035065,526
3035086,472
3035108,79
3035149,11
3035154,290
3035173,604
3035281,756
3035363,2760
3035408,4150
3035423,3961
3035444,3698
3035488,3430
3035507,2779
3035529,2212
3035572,1474
3035593,230
3035615,-37
3035658,-248
3035677,-1037
3035699,-1301
3035742,-1220
3035763,-717
3035784,-749
3035828,-865
3035867,-627
3035872,-476
3035916,-522
3035933,-690
3035955,-499
3035999,-243
3036018,-284
3036039,-483
3036083,-553
3036102,-325
3036124,-381
3036168,-643
3036188,-1012
3036210,-797
3036254,-449
3036273,-228
3036294,-328
3036437,-335
3036484,53
3036529,-153
3036545,309
3036589,375
3036608,-331
3036629,-515
3036673,-406
3036694,-281
3036715,-422
3036759,-473
3036778,-171
3036800,30
3036843,265
3036862,662
3036884,534
3036928,248
3036948,263
3036970,550
3037014,613
3037053,49
3037058,66
3037101,409
3037119,700
3037140,376
3037184,126
3037203,435
3037225,503
3037269,307
3037288,155
3037309,382
3037353,543
3037374,543
3037395,630
3037439,724
3037459,556
3037571,494
3037653,712
3037697,436
3037708,755
3037730,642
3037772,301
3037794,390
3037816,808
3037858,972
3037879,717
3037900,931
3037943,1319
3037963,1367
3037985,1113
3038027,1004
3038048,949
3038070,698
3038112,415
3038134,283
3038156,368
3038198,475
3038219,789
3038241,914
3038316,909
3038324,822
3038366,858
3038389,567
3038410,411
3038452,402
3038473,499
3038495,435
3038537,379
3038557,443
3038579,417
3038719,269
3038765,15
3038808,-304
3038829,-296
3038871,-326
3038876,-524
3038895,-694
3038916,-634
3038958,-378
3038979,-222
3039001,-379
3039043,-395
3039064,-1
3039085,-100
3039127,-504
3039132,-903
3039151,-974
3039172,-679
3039215,-303
3039236,-395
3039257,-584
3039300,-440
3039320,288
3039342,189
3039384,-157
3039405,-275
3039427,-187
3039502,-379
3039512,-759
3039554,-524
3039575,-740
3039597,-848
3039639,-726
3039660,-534
3039681,-634
3039724,-611
3039745,-252
3039855,-366
3039938,-617
3039983,-417
3039994,39
3040016,-141
3040059,-325
3040079,-221
3040101,-125
3040143,-156
3040164,-569
3040186,-739
3040228,-714
3040249,-252
3040272,-156
3040315,-224
3040335,-231
3040357,-107
3040399,-99
3040420,-291
3040442,-138
3040484,120
3040504,34
3040526,-237
3040568,-339
3040590,-138
3040612,-180
3040654,-366
3041075,-613
3041279,116
3041402,-6
3041447,50
3041490,39
3041501,99
3041523,181
3041565,166
3041585,-107
3041686,-104
3041731,94
3041774,159
3041817,84
3041836,310
3041858,436
3041900,408
3041921,167
3041942,187
3041985,285
3041990,359
3042008,317
3042030,129
3042072,-168
3042093,-432
3042196,-220
3042240,-675
3042284,33
3042327,-249
3042345,-48
3042366,-188
3042408,-491
3042429,-477
3042450,-327
3042493,-467
3042513,-828
3042535,-531
3042577,-209
3042582,-197
3042600,-418
3042639,-484
3042681,-256
3042687,-96
3042707,-428
3042749,-623
3042770,-101
3042791,26
3042833,-170
3042856,-355
3042877,-17
3042919,349
3042940,447
3042961,331
3043004,353
3043024,940
3043046,1244
3043089,1393
3043110,1588
3043131,1986
3043174,2524
3043195,2962
3043217,2839
3043359,2872
3043406,1973
3043452,893
3043466,-399
3043510,-670
3043531,-963
3043552,-1115
3043596,-1102
3043615,-748
3043637,-745
3043681,-811
3043700,-503
3043721,-382
3043765,-597
3043786,-1242
3043943,-1126
3044030,-277
3044076,-271
3044121,-1036
3044139,-473
3044183,-166
3044203,-441
3044225,-541
3044268,-436
3044288,-168
3044309,-130
3044353,-105
3044373,-179
3044485,-252
3044570,-180
3044616,166
3044622,456
3044644,549
3044688,566
3044708,576
3044730,632
3044774,612
3044793,64
3044814,-243
3044858,-339
3044877,171
3044899,489
3044943,623
3044963,622
3044985,885
3045029,1284
3045048,1313
3045070,913
3045114,696
3045133,1059
3045154,1080
3045199,867
3045237,751
3045243,995
3045287,1174
3045303,931
3045324,763
3045369,699
3045388,746
3045409,733
3045454,697
3045473,743
3045494,904
3045637,1138
3045685,1261
3045731,805
3045745,826
3045790,982
3045809,883
3045830,754
3045875,792
3045894,996
3045915,827
3045959,549
3045978,396
3046000,484
3046044,433
3046064,33
3046086,83
3046129,303
3046148,242
3046170,-45
3046214,-150
3046234,184
3046256,130
3046300,-129
3046319,-305
3046340,-232
3046384,-320
3046404,-658
3046424,-583
3046500,-455
3046509,-1062
3046551,-1093
3046573,-676
3046595,-686
3046637,-894
3046658,-1127
3046772,-1003
3046854,-1058
3046899,-1124
3046908,-1038
3046930,-1187
3046972,-1298
3046993,-1107
3047015,-1014
3047057,-1026
3047078,-1193
3047100,-1220
3047142,-1141
3047163,-887
3047184,-982
3047227,-1166
3047247,-1037
3047269,-822
3047311,-844
3047334,-1198
3047355,-973
3047398,-558
3047419,-541
3047440,-829
3047483,-899
3047503,-701
3047525,-951
3047567,-1291
3047588,-1173
3047626,-927
3047668,-883
3047674,-850
3047694,-582
3047737,-389
3047759,-549
3047781,-521
3047921,-419
3047968,-539
3048011,-551
3048030,-29
3048073,-361
3048093,-577
3048115,-197
3048157,-35
3048178,-624
3048199,-680
3048242,-457
3048247,-235
3048264,-181
3048285,-199
3048328,-196
3048333,-235
3048351,-342
3048373,-398
3048415,-278
3048436,-112
3048457,-355
3048500,-569
3048521,-445
3048542,-489
3048585,-704
3048605,-653
3048627,-447
3048669,-429
3048691,-537
3048713,-292
3048788,-48
3048797,-631
3048839,-798
3048860,-865
3048881,-821
3048924,-756
3048945,-794
3049056,-715
3049139,-494
3049184,-196
3049194,-573
3049216,-518
3049258,-325
3049264,-154
3049280,-68
3049303,-77
3049346,-167
3049366,-376
3049388,-341
3049430,-272
3049451,-420
3049472,-471
3049514,-313
3049519,-42
3049538,93
3049559,7
3049601,-109
3049622,188
3049643,295
3049685,121
3049690,-198
3049709,-380
3049730,-287
3049772,-77
3049777,31
3049795,-32
3049816,-176
3049858,-264
3049897,-143
3049902,-21
3049943,63
3049964,-56
3049985,-261
3050027,-437
3050032,-465
3050051,-322
3050072,-146
3050212,-123
3050258,-184
3050300,-736
3050321,-466
3050363,-652
3050368,-941
3050387,-989
3050408,-712
3050450,-371
3050455,-272
3050473,-429
3050495,-608
3050537,-570
3050557,58
3050579,226
3050620,166
3050626,-3
3050644,-87
3050665,16
3050707,222
3050712,351
3050730,334
3050752,263
3050794,271
3050814,526
3050836,671
3050878,908
3050883,1327
3050902,1878
3050940,2389
3050982,2774
3050988,3425
3051008,3776
3051052,4010
3051071,4051
3051092,3952
3051136,3703
3051156,2592
3051177,1995
3051222,1524
3051241,453
3051353,-232
3051439,-1645
3051485,-884
3051491,-756
3051513,-468
3051557,-237
3051576,-371
3051598,-487
3051642,-530
3051661,-667
3051682,-715
3051727,-654
3051747,-557
3051767,-670
3051811,-801
3051832,-794
3051853,-697
3051898,-556
3051917,-393
3051938,-552
3051982,-803
3052001,-867
3052023,-763
3052067,-871
3052106,-1411
3052111,-1284
3052156,-921
3052172,-971
3052193,-1359
3052238,-1498
3052257,-936
3052278,-907
3052323,-1223
3052342,-1613
3052364,-1312
3052506,-926
3052611,-1616
3052659,-1550
3052705,-795
3052750,-694
3052759,-928
3052781,-869
3052825,-754
3052845,-639
3052866,-616
3052910,-595
3052929,-595
3052951,-526
3052995,-379
3053014,-146
3053036,-211
3053080,-354
3053099,-495
3053120,-443
3053165,-342
3053184,-250
3053205,-283
3053249,-261
3053270,112
3053291,259
3053368,284
3053375,322
3053419,201
3053438,-199
3053460,-174
3053504,-12
3053523,222
3053636,370
3053723,578
3053770,-61
3053775,205
3053795,357
3053839,259
3053858,17
3053880,144
3053924,312
3053943,513
3053964,506
3054008,333
3054029,-179
3054050,-119
3054094,107
3054113,-16
3054135,-317
3054179,-431
3054198,-98
3054220,-41
3054263,-128
3054284,-328
3054305,-379
3054348,-450
3054369,-574
3054391,-556
3054433,-483
3054454,-361
3054475,-398
3054518,-477
3054539,-400
3054560,-341
3054636,-459
3054644,-997
3054785,-847
3054831,-339
3054875,-789
3054895,-562
3054937,-734
3054958,-1332
3054979,-1326
3055022,-1164
3055043,-1019
3055064,-940
3055107,-766
3055128,-552
3055149,-608
3055192,-602
3055213,-281
3055234,-254
3055277,-381
3055298,-261
3055319,104
3055362,396
3055383,286
3055404,229
3055447,290
3055469,144
3055491,-78
3055533,-153
3055554,110
3055575,174
3055618,226
3055639,557
3055660,586
3055703,419
3055724,204
3055745,253
3055788,244
3055925,61
3056008,383
3056053,120
3056059,-159
3056079,7
3056122,296
3056142,269
3056164,5
3056206,-43
3056228,454
3056250,435
3056293,171
3056313,-141
3056335,-43
3056377,82
3056398,202
3056419,145
3056462,-46
3056483,-429
3056504,-405
3056547,-294
3056568,-277
3056589,-313
3056632,-305
3056653,-173
3056675,-36
3056717,149
3056738,217
3056760,23
3056802,-168
3056823,-236
3056844,-241
3056887,-246
3056908,-69
3056929,65
3057070,159
3057116,427
3057160,255
3057180,185
3057257,318
3057263,345
3057306,419
3057328,865
3057348,918
3057391,861
3057412,1048
3057433,1139
3057477,952
3057497,159
3057519,56
3057562,132
3057583,-10
3057604,-172
3057647,-141
3057668,404
3057689,570
3057733,563
3057753,369
3057775,347
3057818,379
3057837,393
3057859,284
3057902,155
3057923,111
3057944,169
3057987,210
3058008,93
3058029,-109
3058073,-323
3058093,-327
3058203,-137
3058287,-521
3058333,15
3058343,-389
3058365,-197
3058408,214
3058429,371
3058450,-6
3058526,-256
3058534,481
3058577,338
3058598,-121
3058618,136
3058661,555
3058682,676
3058703,567
3058746,717
3058767,1282
3058789,1200
3058832,1007
3058853,1224
3058873,1434
3058917,1472
3058938,1827
3058959,2472
3059003,3227
3059022,4273
3059044,4541
3059089,4716
3059108,4935
3059128,4993
3059174,4887
3059192,3884
3059213,3308
3059357,2933
3059407,-101
3059454,-541
3059464,-621
3059510,-292
3059527,129
3059549,-65
3059594,-253
3059613,77
3059635,228
3059680,100
3059719,-198
3059765,262
3059782,590
3059804,650
3059849,587
3059867,67
3059888,-9
3059933,159
3059952,389
3059974,322
3060019,356
3060036,632
3060058,519
3060103,315
3060122,318
3060144,293
3060189,70
3060206,-261
3060228,-91
3060273,171
3060292,571
3060313,720
3060358,755
3060378,460
3060491,416
3060579,-347
3060627,90
3060648,608
3060693,610
3060712,579
3060733,737
3060779,938
3060796,848
3060818,560
3060863,307
3060882,298
3060902,531
3060947,768
3060966,694
3060988,485
3061066,502
3061073,1450
3061119,1285
3061136,853
3061158,936
3061203,1087
3061221,1138
3061243,1062
3061288,965
3061306,826
3061327,849
3061373,930
3061391,1071
3061412,1066
3061458,1018
3061475,1038
3061497,1272
3061641,1566
3061690,1437
3061737,869
3061748,1333
3061793,1851
3061810,1654
3061832,1210
3061876,1053
3061896,1234
3061917,961
3061962,520
3061981,387
3062002,653
3062047,866
3062066,1127
3062088,1221
3062131,1159
3062151,664
3062173,478
3062216,353
3062236,21
3062273,-70
3062317,-46
3062322,132
3062342,221
3062386,337
3062406,377
3062428,105
3062471,-258
3062492,-390
3062513,-185
3062556,-114
3062576,-438
3062597,-375
3062640,-70
3062661,249
3062776,41
3062860,-461
3062906,-475
3062912,-404
3062933,-75
3062976,163
3062997,-32
3063018,-231
3063062,-308
3063081,-186
3063103,-185
3063146,-316
3063167,-652
3063188,-668
3063231,-576
3063252,-241
3063351,-91
3063396,-75
3063441,412
3063486,97
3063503,-50
3063525,-255
3063568,-429
3063607,-180
3063612,-25
3063655,-109
3063673,-246
3063694,136
3063738,627
3063758,714
3063780,410
3063922,241
3063969,-145
3064014,136
3064030,540
3064073,507
3064093,284
3064115,400
3064158,543
3064179,295
3064200,106
3064244,108
3064263,405
3064284,438
3064327,379
3064348,147
3064370,133
3064412,345
3064433,950
3064455,799
3064498,398
3064518,356
3064540,748
3064583,882
3064604,193
3064625,74
3064668,248
3064689,356
3064710,188
3064753,115
3064774,188
3064795,171
3064871,187
3064880,12
3064923,-23
3064943,667
3065055,811
3065139,919
3065184,543
3065192,721
3065214,522
3065257,395
3065277,701
3065299,838
3065342,825
3065363,703
3065385,728
3065428,718
3065447,312
3065469,-12
3065512,-288
3065533,-582
3065555,-625
3065598,-594
3065619,-406
3065640,-343
3065684,-298
3065703,-175
3065724,-220
3065768,-390
3065788,-644
3065810,-574
3065853,-491
3065872,-595
3065894,-574
3065937,-345
3065958,219
3065979,141
3066022,-206
3066043,-692
3066474,-498
3066682,-108
3066808,-579
3066893,99
3066938,-43
3066951,422
3066972,871
3067016,804
3067036,586
3067058,1291
3067101,2079
3067122,2441
3067143,2756
3067187,3512
3067206,4336
3067228,4082
3067273,4046
3067292,4583
3067314,4079
3067359,3054
3067377,1730
3067399,1425
3067444,716
3067461,-1427
3067483,-1842
3067627,-1732
3067676,-1094
3067723,-1301
3067734,-989
3067779,-665
3067797,-672
3067818,-759
3067864,-675
3067882,-373
3067903,-435
3067949,-613
3067968,-877
3068007,-890
3068053,-868
3068072,-961
3068118,-1011
3068136,-833
3068157,-720
3068203,-749
3068221,-1055
3068243,-985
3068288,-696
3068306,-244
3068327,-346
3068373,-496
3068391,-277
3068412,-102
3068458,-146
3068477,-667
3068497,-791
3068543,-742
3068562,-458
3068583,-370
3068629,-357
3068647,-358
3068760,-243
3068849,54
3068897,491
3068916,503
3068962,633
3068981,835
3069002,655
3069048,358
3069065,196
3069087,371
3069132,439
3069152,71
3069173,28
3069218,249
3069257,823
3069303,709
3069319,250
3069341,284
3069386,555
3069405,801
3069427,403
3069472,-37
3069489,167
3069511,500
3069556,475
3069576,-309
3069597,-342
3069643,-4
3069660,543
3069681,421
3069727,253
3069745,394
3069766,495
3069910,433
3069959,37
3070006,-127
3070017,40
3070063,242
3070080,178
3070102,59
3070146,128
3070165,417
3070187,220
3070231,-127
3070250,-391
3070271,-405
3070315,-555
3070335,-778
3070357,-552
3070401,-307
3070421,-495
3070443,-612
3070486,-516
3070525,-512
3070530,-893
3070574,-1197
3070590,-903
3070613,-769
3070657,-825
3070676,-574
3070697,-288
3070741,-305
3070760,-991
3070782,-1006
3070825,-812
3070846,-908
3070868,-1106
3070912,-1135
3070931,-804
3071044,-571
3071130,-1025
3071176,-1058
3071182,-1235
3071202,-1015
3071246,-795
3071266,-487
3071288,-269
3071331,-142
3071350,-421
3071372,-575
3071416,-674
3071436,-983
3071458,-938
3071502,-655
3071521,-456
3071542,-679
3071586,-679
3071606,206
3071628,303
3071705,-72
3071711,-326
3071755,98
3071775,51
3071797,-309
3071840,-481
3071859,88
3071882,313
3071926,219
3071945,38
3071967,361
3072010,701
3072031,550
3072052,318
3072195,232
3072242,-594
3072287,-120
3072302,-228
3072346,-176
3072365,330
3072387,159
3072431,-324
3072451,-539
3072473,-184
3072517,-101
3072536,-813
3072557,-782
3072601,-403
3072620,-343
3072642,-708
3072686,-797
3072706,-307
3072728,-411
3072772,-695
3072791,-504
3072812,-145
3072856,8
3072875,-169
3072913,-222
3072957,-250
3072963,-250
3072983,-162
3073026,-205
3073045,-834
3073067,-942
3073110,-716
3073131,-414
3073152,-640
3073196,-828
3073216,-614
3073330,-477
3073414,-160
3073459,244
3073467,-153
3073488,-68
3073531,135
3073552,-39
3073573,-278
3073616,-307
3073637,-22
3073658,-13
3073701,-15
3073721,164
3073743,205
3073786,166
3073806,55
3073828,-78
3073871,-197
3073891,123
3073913,362
3073956,295
3073977,-110
3073998,216
3074041,745
3074062,713
3074161,203
3074239,165
3074284,-391
3074328,-250
3074334,-1
3074475,-42
3074522,-182
3074566,-272
3074583,-11
3074626,137
3074647,353
3074668,409
3074711,441
3074732,443
3074754,293
3074796,33
3074817,-137
3074839,112
3074881,327
3074902,227
3074923,240
3074966,485
3074987,894
3075009,742
3075052,505
3075072,409
3075094,538
3075137,655
3075157,648
3075179,606
3075222,670
3075242,1169
3075264,1417
3075307,1602
3075326,2169
3075348,2704
3075392,3308
3075412,4135
3075434,4300
3075478,4436
3075616,4695
3075705,1602
3075753,-1074
3075767,-1427
3075812,-1358
3075831,-902
3075851,-664
3075896,-545
3075915,-933
3075937,-1131
3075982,-1055
3076000,-747
3076021,-1010
3076067,-1359
3076086,-1238
3076108,-968
3076154,-829
3076171,-636
3076193,-521
3076238,-519
3076256,-518
3076278,-271
3076323,-77
3076340,-400
3076362,-603
3076407,-612
3076426,-565
3076448,-597
3076493,-552
3076511,-448
3076532,-467
3076577,-363
3076597,120
3076618,19
3076762,-330
3076810,-526
3076890,-301
3076937,-291
3076951,138
3076996,110
3077014,-57
3077035,-71
3077080,-84
3077099,-52
3077121,70
3077166,212
3077183,302
3077205,300
3077250,313
3077269,420
3077291,488
3077336,515
3077354,364
3077375,351
3077421,500
3077440,872
3077461,814
3077507,637
3077524,378
3077546,342
3077591,330
3077609,446
3077631,572
3077676,682
3077695,756
3077716,808
3077762,947
3077779,1084
3077893,769
3077981,409
3078028,347
3078050,352
3078095,170
3078114,-136
3078135,-61
3078213,68
3078220,-385
3078264,-364
3078283,-154
3078304,-343
3078347,-593
3078368,-632
3078390,-674
3078433,-851
3078453,-850
3078475,-685
3078518,-746
3078538,-1495
3078560,-1587
3078603,-1390
3078622,-1377
3078644,-1732
3078687,-1963
3078708,-1577
3078729,-1395
3078772,-1477
3078792,-1871
3078814,-1919
3078857,-1977
3078878,-2283
3078900,-2302
3079041,-2190
3079088,-2086
3079132,-2270
3079150,-1983
3079193,-2136
3079214,-2633
3079234,-2515
3079277,-2270
3079298,-2259
3079336,-2389
3079379,-2434
3079385,-2239
3079405,-2127
3079448,-2110
3079469,-2427
3079490,-2521
3079533,-2385
3079554,-1926
3079576,-1891
3079619,-1922
3079638,-1915
3079659,-1953
3079702,-1986
3079723,-1851
3079745,-1858
3079788,-1958
3079809,-1779
3079830,-1504
3079873,-1373
3079894,-1534
3079915,-1428
3079958,-1243
3079979,-1526
3080001,-1895
3080044,-2031
3080063,-1470
3080176,-1258
3080260,-1085
3080305,-1438
3080314,-1419
3080336,-1641
3080378,-1806
3080399,-1566
3080437,-1482
3080480,-1615
3080486,-1857
3080506,-1709
3080549,-1547
3080569,-1658
3080591,-1719
3080634,-1617
3080655,-1373
3080675,-1402
3080717,-1393
3080738,-1144
3080760,-1205
3080802,-1435
3080825,-1546
3080845,-1376
3080887,-1332
3080910,-1572
3080931,-1526
3080974,-1430
3080995,-1580
3081016,-1553
3081059,-1303
3081080,-1177
3081101,-1528
3081143,-1757
3081164,-1306
3081186,-1170
3081327,-1330
3081372,-1116
3081416,-901
3081435,-1042
3081477,-1145
3081483,-1189
3081499,-1167
3081537,-1093
3081580,-1021
3081586,-1063
3081607,-1132
3081650,-1009
3081670,-141
3081692,30
3081734,-238
3081755,-657
3081776,-257
3081819,138
3081841,-393
3081863,-759
3081905,-643
3081926,19
3081947,-94
3081990,-302
3082011,-54
3082032,139
3082075,140
3082095,-83
3082117,-141
3082160,-149
3082180,143
3082202,322
3082245,281
3082265,-151
3082287,-58
3082329,205
3082350,133
3082462,-181
3082545,-34
3082589,399
3082600,-148
3082623,-155
3082666,226
3082686,730
3082724,513
3082767,287
3082773,284
3082793,207
3082835,36
3082856,12
3082877,113
3082919,94
3082942,43
3082963,251
3083005,478
3083026,448
3083048,381
3083090,447
3083111,558
3083132,478
3083175,513
3083196,976
3083217,1022
3083260,911
3083280,1293
3083302,1848
3083345,2324
3083366,2867
3083387,3237
3083431,3660
3083451,3980
3083473,3968
3083616,4013
3083664,1220
3083710,-107
3083724,-771
3083768,-753
3083787,-850
3083808,-924
3083853,-759
3083872,-118
3083893,-145
3083970,-373
3083977,-81
3084021,24
3084041,-248
3084063,-258
3084107,-115
3084126,60
3084147,21
3084191,-7
3084211,6
3084233,29
3084276,90
3084295,240
3084317,237
3084361,163
3084381,3
3084402,-48
3084446,-40
3084465,278
3084487,465
3084530,542
3084551,525
3084572,633
3084616,794
3084635,1004
3084749,1119
3084835,964
3084881,1214
3084887,828
3084986,978
3085033,1704
3085078,2096
3085123,2289
3085138,2166
3085158,2124
3085203,2071
3085222,2034
3085243,2169
3085288,2335
3085327,2420
3085332,2387
3085377,2377
3085391,2496
3085413,2649
3085458,2803
3085477,2842
3085499,2745
3085544,2624
3085562,2419
3085583,2416
3085628,2467
3085647,2232
3085669,1954
3085714,1850
3085732,2155
3085753,2177
3085897,2096
3085945,1679
3085991,1362
3086004,1052
3086048,1204
3086067,1380
3086089,1404
3086133,1501
3086152,1521
3086174,1371
3086217,1313
3086238,1428
3086260,1183
3086303,731
3086322,451
3086344,649
3086387,727
3086408,518
3086429,561
3086472,613
3086630,174
3086713,-479
3086757,-601
3086763,-1087
3086806,-941
3086826,-1036
3086848,-1341
3086890,-1501
3086911,-1027
3087023,-814
3087105,-774
3087149,-1490
3087160,-1337
3087182,-1543
3087224,-1715
3087229,-1668
3087248,-1445
3087268,-1241
3087310,-1227
3087315,-1425
3087333,-1698
3087355,-1848
3087397,-1810
3087418,-1643
3087440,-1716
3087481,-1781
3087487,-1735
3087504,-1619
3087525,-1562
3087567,-1618
3087573,-1718
3087591,-1814
3087611,-1924
3087653,-2029
3087658,-2091
3087696,-2073
3087702,-2024
3087744,-2023
3087762,-1943
3087783,-1765
3087825,-1660
3087846,-1850
3087868,-1819
3087910,-1633
3087931,-1496
3087953,-1536
3087995,-1404
3088000,-1130
3088017,-991
3088038,-1168
3088179,-1524
3088225,-1801
3088269,-1269
3088290,-1173
3088332,-1478
3088353,-1836
3088374,-1898
3088417,-1957
3088437,-1902
3088459,-1790
3088502,-1752
3088522,-1714
3088544,-1506
3088586,-1256
3088607,-1455
3088629,-1894
3088671,-2210
3088694,-2046
3088714,-1928
3088789,-1981
3088798,-1788
3088840,-1518
3088845,-1411
3088862,-1489
3088884,-1616
3088926,-1675
3088949,-1741
3088970,-1801
3089013,-1787
3089033,-1527
3089055,-1440
3089097,-1409
3089118,-1296
3089140,-1261
3089182,-1348
3089204,-1696
3089314,-1737
3089395,-1641
3089439,-1643
3089453,-1314
3089475,-1012
3089517,-1005
3089539,-1422
3089560,-1366
3089602,-1160
3089607,-976
3089624,-920
3089645,-989
3089687,-1164
3089692,-1392
3089711,-1528
3089732,-1498
3089775,-1396
3089795,-1547
3090126,-1632
3090290,-1667
3090471,-1769
3090556,-1345
3090601,-1539
3090645,-1360
3090688,-1486
3090705,-1524
3090727,-1542
3090769,-1600
3090774,-1683
3090793,-1696
3090813,-1575
3090855,-1373
3090860,-1201
3090879,-1093
3090900,-998
3090942,-884
3090963,-746
3090985,-710
3091027,-606
3091047,-315
3091069,-298
3091111,-252
3091116,65
3091135,703
3091156,1433
3091199,1936
3091220,2105
3091240,2191
3091284,2421
3091304,2627
3091326,2314
3091370,1724
3091389,232
3091427,-422
3091471,-945
3091477,-1985
3091495,-2508
3091638,-2819
3091685,-2230
3091730,-2448
3091746,-2633
3091790,-2328
3091809,-2437
3091831,-2686
3091875,-2553
3091894,-1622
3091916,-1629
3091960,-1935
3091980,-2070
3092002,-1927
3092046,-1979
3092065,-2293
3092086,-2134
3092130,-1907
3092149,-2014
3092171,-2152
3092215,-2093
3092234,-1965
3092256,-2207
3092300,-2479
3092320,-2293
3092341,-2033
3092385,-1983
3092405,-2284
3092427,-2199
3092471,-1895
3092490,-1460
3092529,-1587
3092573,-1832
3092579,-1881
3092597,-1593
3092641,-1357
3092660,-1725
3092772,-1992
3092858,-1750
3092905,-1011
3092911,-1867
3092931,-1828
3092975,-1386
3092996,-1194
3093017,-1666
3093062,-1955
3093081,-1289
3093101,-1016
3093145,-1132
3093166,-1489
3093187,-1296
3093231,-1020
3093251,-996
3093272,-1200
3093316,-1399
3093335,-1487
3093357,-1289
3093401,-1050
3093420,-993
3093442,-1021
3093486,-874
3093505,-485
3093527,-541
3093571,-658
3093590,-587
3093611,-581
3093688,-726
3093696,-838
3093740,-688
3093759,-719
3093781,-805
3093923,-816
3093971,-1100
3094016,-1490
3094031,-1229
3094075,-1074
3094094,-1659
3094116,-1832
3094160,-1585
3094179,-1110
3094201,-1383
3094245,-1668
3094264,-1417
3094286,-1341
3094330,-1503
3094350,-1528
3094371,-1349
3094415,-1419
3094435,-2035
3094456,-2044
3094500,-1908
3094519,-2208
3094541,-2488
3094584,-2554
3094605,-2384
3094626,-2423
3094669,-2467
3094690,-2277
3094712,-2185
3094755,-2159
3094776,-1996
3094814,-1882
3094857,-1900
3094862,-2273
3094881,-2359
3094924,-2320
3094945,-2338
3095058,-2462
3095142,-2008
3095187,-1608
3095195,-1853
3095216,-1771
3095259,-1647
3095280,-1898
3095301,-1984
3095344,-1839
3095365,-1607
3095387,-1783
3095430,-1936
3095450,-1542
3095472,-1302
3095515,-1300
3095536,-1714
3095557,-1754
3095600,-1607
3095621,-1287
3095641,-1337
3095683,-1433
3095688,-1442
3095707,-1374
3095806,-1371
3095851,-1606
3095895,-1696
3095939,-1296
3095957,-640
3095995,-774
3096038,-1053
3096044,-1151
3096064,-914
3096205,-739
3096252,-545
3096296,-1032
3096314,-1007
3096357,-793
3096377,-1103
3096399,-1338
3096442,-1300
3096463,-1055
3096485,-1251
3096528,-1437
3096548,-900
3096570,-508
3096613,-427
3096633,-659
3096655,-527
3096698,-345
3096718,-732
3096740,-1147
3096783,-1360
3096803,-1206
3096825,-1220
3096868,-1323
3096888,-1094
3096910,-769
3096953,-605
3096973,-950
3096995,-1018
3097037,-860
3097058,-469
3097080,-440
3097155,-401
3097163,162
3097205,96
3097210,-270
3097228,-736
3097340,-974
3097422,-1443
3097466,85
3097478,-620
3097500,-546
3097541,-164
3097546,132
3097565,26
3097586,-431
3097627,-870
3097633,-940
3097651,-588
3097671,-145
3097712,-8
3097717,-269
3097737,-619
3097759,-722
3097800,-571
3097822,-524
3097844,-772
3097885,-930
3097906,-714
3097927,-550
3097969,-394
3097974,-185
3097992,61
3098014,221
3098055,213
3098060,93
3098079,42
3098100,132
3098142,250
3098147,184
3098185,-138
3098190,-544
3098231,-752
3098249,-393
3098270,-233
3098312,-315
3098317,-551
3098336,-726
3098357,-648
3098497,-319
3098543,114
3098585,217
3098608,-387
3098650,-708
3098671,-1003
3098692,-852
3098734,-686
3098739,-643
3098757,-674
3098779,-639
3098821,-535
3098841,-317
3098863,-81
3098904,218
3098909,275
3098928,-87
3098949,-611
3098991,-806
3098996,-545
3099014,-249
3099036,-402
3099078,-919
3099098,-1078
3099120,-630
3099162,-369
3099167,-398
3099185,-459
3099223,-338
3099265,-136
3099271,-102
3099292,-129
3099334,-111
3099356,-333
3099378,-467
3099419,-431
3099440,-347
3099462,-488
3099503,-489
3099508,-211
3099527,113
3099637,176
3099718,698
3099762,1890
3099777,2582
3099798,2986
3099841,3731
3099862,4668
3099883,4262
3099927,3759
3099946,3751
3099968,3610
3100012,2942
3100032,1204
3100054,620
3100098,54
3100117,-977
3100138,-1087
3100182,-1050
3100201,-1514
3100223,-1731
3100266,-1529
3100287,-530
3100309,-479
3100353,-756
3100393,-1020
3100437,-652
3100456,-882
3100478,-964
3100521,-843
3100540,-534
3100562,-599
3100605,-708
3100626,-633
3100647,-623
3100789,-770
3100836,-718
3100880,-643
3100898,-259
3100941,-123
3100962,-187
3100983,-149
3101027,-26
3101046,-120
3101067,-338
3101111,-404
3101131,-96
3101153,-180
3101196,-445
3101217,-252
3101237,204
3101281,362
3101301,-321
3101323,-345
3101366,45
3101387,375
3101408,1
3101452,-311
3101471,-151
3101492,-37
3101536,-38
3101557,-7
3101595,34
3101638,66
3101644,354
3101664,489
3101707,445
3101727,225
3101748,320
3101792,412
3101812,183
3101923,119
3102007,-48
3102052,-134
3102062,-69
3102084,-69
3102127,-73
3102147,239
3102169,438
3102211,450
3102232,28
3102253,-132
3102295,-159
3102318,-26
3102339,-39
3102381,-197
3102402,-357
3102423,-3
3102465,425
3102470,526
3102489,254
3102509,41
3102551,284
3102556,810
3102574,1008
3102596,589
3102638,-24
3102659,80
3102680,305
3102723,34
3102745,-743
3102765,-506
3102840,-161
3102850,-533
3102893,-567
3102913,-505
3102935,-530
3103076,-561
3103121,-326
3103165,-866
3103186,-637
3103228,-992
3103249,-1784
3103270,-1597
3103313,-1175
3103333,-1105
3103355,-1579
3103397,-1978
3103418,-1735
3103440,-1394
3103482,-1249
3103487,-1327
3103505,-1452
3103525,-1427
3103567,-1237
3103572,-1030
3103591,-956
3103613,-1073
3103655,-1309
3103675,-1736
3103697,-1797
3103739,-1745
3103744,-1632
3103761,-1557
3103783,-1552
3103825,-1543
3103863,-1419
3103869,-1035
3103910,-1026
3103931,-1131
3103953,-916
3103995,-667
3104000,-672
3104018,-976
3104040,-1325
3104082,-1407
3104102,-1039
3104214,-1125
3104296,-1299
3104340,-1196
3104353,-1074
3104374,-955
3104416,-880
3104421,-872
3104439,-872
3104461,-796
3104503,-642
3104524,-567
3104545,-756
3104587,-957
3104592,-1011
3104610,-914
3104632,-785
3104674,-770
3104695,-920
3104716,-866
3104758,-720
3104763,-586
3104781,-496
3104803,-441
3104845,-422
3104866,-536
3104904,-591
3104946,-537
3104951,-446
3104973,-658
3105015,-922
3105036,-797
3105057,-525
3105099,-451
3105104,-647
3105123,-892
3105144,-912
3105187,-711
3105207,-532
3105229,-697
3105369,-767
3105415,-167
3105458,-72
3105479,-485
3105522,-285
3105542,-289
3105564,-457
3105606,-476
3105627,-201
3105649,-278
3105691,-490
3105696,-630
3105714,-587
3105736,-482
3105779,-475
3105799,-517
3105821,-253
3105863,92
3105884,147
3105905,-24
3105948,-51
3105968,66
3105990,-148
3106065,-432
3106075,-171
3106118,-136
3106138,-503
3106160,-474
3106202,-220
3106223,-7
3106244,-223
3106287,-335
3106308,230
3106329,435
3106372,313
3106377,27
3106395,-165
3106505,-238
3106588,-581
3106660,-639
3106704,167
3106748,52
3106791,-110
3106812,123
3106833,241
3106876,115
3106896,-355
3106918,-277
3106960,-44
3106982,-32
3107004,-262
3107046,-380
3107066,-152
3107088,-86
3107130,-145
3107135,-221
3107152,-215
3107174,-202
3107216,-331
3107221,-629
3107239,-924
3107277,-980
3107319,-800
3107325,-700
3107345,-983
3107387,-1189
3107392,-1103
3107409,-797
3107431,-541
3107473,-490
3107478,-545
3107496,-536
3107518,-420
3107658,-337
3107704,-778
3107747,-1297
3107768,-777
3107810,-526
3107831,-726
3107852,-837
3107894,-684
3107899,-333
3107918,-36
3107939,25
3107981,-128
3108003,-217
3108024,83
3108066,527
3108087,1222
3108109,1403
3108151,1697
3108172,2963
3108194,3600
3108237,3945
3108258,4140
3108279,4305
3108323,4361
3108342,3458
3108380,2762
3108425,2162
3108431,864
3108449,2
3108493,-789
3108512,-1612
3108534,-1795
3108578,-1956
3108597,-2146
3108619,-2160
3108663,-2088
3108682,-1527
3108794,-1216
3108880,-796
3108926,-1394
3108932,-1306
3108954,-1463
3108998,-1590
3109018,-1215
3109039,-1031
3109084,-1060
3109103,-1149
3109124,-993
3109169,-840
3109188,-756
3109209,-743
3109253,-767
3109272,-816
3109294,-647
3109338,-426
3109359,-692
3109379,-1043
3109423,-1144
3109442,-855
3109464,-990
3109541,-1218
3109549,-506
3109593,-485
3109612,-772
3109634,-513
3109678,-169
3109697,-352
3109719,-581
3109763,-466
3109782,287
3109803,330
3109946,103
3109994,-150
3110039,-634
3110055,-94
3110099,-125
3110118,-207
3110140,-10
3110184,143
3110203,-68
3110224,-226
3110268,-314
3110287,-569
3110309,-695
3110353,-679
3110374,-211
3110394,62
3110438,259
3110458,375
3110480,360
3110524,393
3110543,616
3110564,686
3110608,622
3110627,202
3110649,161
3110693,371
3110714,716
3110752,513
3110796,338
3110802,791
3110820,984
3110864,869
3110883,667
3110905,758
3110948,683
3110968,291
3111080,448
3111163,254
3111207,-6
3111219,282
3111240,113
3111283,-233
3111303,-132
3111325,40
3111367,-68
3111389,-247
3111409,-53
3111452,11
3111457,-186
3111475,-397
3111497,-387
3111539,-270
3111560,-546
3111581,-682
3111624,-580
3111645,-527
3111666,-821
3111709,-1038
3111729,-815
3111751,-742
3111793,-824
3111814,-1031
3111836,-1094
3111878,-1171
3111883,-1245
3112325,-1286
3112531,-470
3112654,-1085
3112701,-750
3112744,-674
3112750,-725
3112792,-615
3112810,-551
3112831,-713
3112874,-805
3112895,-533
3112916,-393
3112959,-365
3112981,-573
3113002,-713
3113045,-783
3113066,-637
3113087,-636
3113130,-733
3113150,-662
3113172,-459
3113214,-316
3113235,-263
3113257,-222
3113299,-176
3113321,-236
3113343,-308
3113484,-386
3113530,-649
3113573,-723
3113592,-482
3113635,-760
3113655,-679
3113677,-341
3113719,-136
3113740,-95
3113763,-50
3113838,-80
3113846,-188
3113888,-62
3113911,-345
3113932,-606
3113974,-729
3113995,-754
3114017,-678
3114059,-495
3114080,-444
3114101,-656
3114143,-629
3114166,338
3114187,420
3114230,-35
3114250,-616
3114272,-353
3114314,-252
3114335,-999
3114356,-1054
3114399,-695
3114420,-337
3114441,-552
3114484,-573
3114506,154
3114618,184
3114700,83
3114745,-406
3114756,53
3114777,-159
3114819,-400
3114840,-417
3114862,-373
3114904,-360
3114925,-294
3114946,-268
3114989,-262
3115027,-191
3115032,309
3115075,497
3115096,98
3115117,-203
3115160,-232
3115180,162
3115202,4
3115244,-400
3115266,-499
3115288,-96
3115330,160
3115351,-223
3115372,-397
3115415,-313
3115435,314
3115457,498
3115499,406
3115520,-17
3115543,214
3115585,684
3115606,651
3115628,150
3115768,-85
3115814,-111
3115858,-419
3115877,-352
3115919,-267
3115942,-318
3115962,-163
3116004,98
3116009,271
3116027,269
3116049,193
3116091,163
3116112,194
3116133,160
3116176,108
3116214,31
3116219,11
3116262,48
3116282,340
3116304,476
3116346,481
3116367,167
3116388,100
3116431,226
3116436,466
3116454,609
3116474,526
3116517,351
3116521,317
3116540,476
3116561,683
3116604,804
3116625,1110
3116646,1441
3116689,1742
3116710,2284
3116731,2853
3116774,3568
3116795,4441
3116905,4587
3116991,3881
3117038,950
3117044,-257
3117065,-645
3117110,-1132
3117130,-1883
3117151,-1746
3117195,-1471
3117216,-1395
3117236,-1349
3117280,-1048
3117299,-520
3117321,-633
3117397,-778
3117483,-525
3117529,-1195
3117575,-1146
3117621,-1151
3117635,-846
3117656,-625
3117701,-466
3117720,-458
3117742,-504
3117786,-541
3117805,-690
3117827,-737
3117871,-630
3117890,-211
3117912,-270
3118055,-519
3118102,-419
3118148,-303
3118162,-308
3118206,-243
3118225,-385
3118247,-703
3118291,-929
3118310,-628
3118332,-408
3118376,-316
3118395,-155
3118417,17
3118461,128
3118481,-54
3118503,-214
3118547,-330
3118566,-353
3118588,-303
3118632,-251
3118651,-63
3118689,154
3118733,359
3118739,178
3118757,-87
3118801,-205
3118820,-78
3118842,-148
3118886,-277
3118906,-39
3118928,260
3118972,392
3118991,287
3119013,348
3119057,476
3119076,377
3119189,230
3119275,329
3119319,361
3119325,261
3119347,15
3119389,-156
3119394,-78
3119412,225
3119434,511
3119476,554
3119497,196
3119519,255
3119561,513
3119582,657
3119603,369
3119646,88
3119668,177
3119689,379
3119732,440
3119752,156
3119774,105
3119816,211
3119837,298
3119859,82
3119934,-103
3119944,165
3119986,-35
3120006,-258
3120028,-72
3120070,-40
3120091,-646
3120112,-716
3120154,-565
3120159,-530
3120178,-747
3120200,-971
3120340,-923
3120386,-781
3120429,-713
3120450,-318
3120492,-473
3120513,-930
3120534,-891
3120576,-865
3120581,-1011
3120598,-1245
3120620,-1406
3120662,-1461
3120667,-1443
3120686,-1332
3120706,-1095
3120748,-802
3120753,-622
3120771,-631
3120793,-731
3120835,-802
3120856,-872
3120877,-844
3120920,-754
3120942,-872
3120980,-1108
3121022,-1107
3121028,-298
3121048,-189
3121090,-449
3121111,-711
3121133,-581
3121175,-612
3121195,-862
3121217,-712
3121259,-554
3121264,-600
3121283,-713
3121304,-598
3121346,-275
3121367,-432
3121479,-875
3121561,-653
3121606,-345
3121618,-666
3121639,-637
3121682,-440
3121703,-282
3121724,-458
3121766,-606
3121787,-265
3121809,7
3121851,22
3121855,-231
3121874,-481
3121895,-449
3121938,-175
3121958,-146
3121980,-525
3122022,-729
3122045,-230
3122065,-115
3122139,-331
3122149,-312
3122191,-180
3122212,-720
3122234,-802
3122276,-524
3122281,-227
3122299,-285
3122321,-639
3122363,-872
3122383,-373
3122405,-204
3122447,-282
3122452,-360
3122470,-243
3122492,-77
3122632,-145
3122677,-730
3122720,-1019
3122741,-547
3122783,-551
3122788,-640
3122806,-686
3122828,-608
3122870,-454
3122891,-251
3122912,-267
3122954,-362
3122959,-562
3122977,-788
3122999,-864
3123041,-707
3123063,-495
3123083,-805
3123125,-1098
3123130,-994
3123148,-550
3123186,-249
3123228,-420
3123234,-948
3123256,-565
3123298,-96
3123318,-440
3123340,-800
3123381,-716
3123387,-322
3123405,-102
3123426,-286
3123468,-638
3123489,-562
3123511,-319
3123552,-315
3123557,-520
3123576,-678
3123597,-642
3123639,-542
3123660,-728
3123771,-824
3123853,-273
3123897,30
3123911,-302
3123932,-397
3123974,-428
3123997,-636
3124018,-694
3124060,-587
3124081,-232
3124102,-360
3124144,-646
3124149,-857
3124167,-831
3124189,-678
3124231,-613
3124269,-803
3124275,-787
3124316,-670
3124337,-435
3124359,-331
3124401,-274
3124406,-387
3124422,-687
3124444,-962
3124486,-995
3124491,-789
3124509,-601
3124531,-643
3124573,-826
3124578,-920
3124596,-829
3124616,-689
3124658,-678
3124663,-786
3124681,-841
3124703,-754
3124745,-616
3124767,-642
3124789,-666
3124929,-515
3124974,149
3125017,-213
3125038,-258
3125080,58
3125085,441
3125103,826
3125124,1260
3125167,1760
3125187,2812
3125209,3392
3125252,3931
3125273,4233
3125430,4011
3125517,507
3125562,-1699
3125607,-1964
3125627,-1916
3125670,-1854
3125689,-1716
3125711,-1431
3125755,-1064
3125776,-1022
3125797,-1290
3125841,-1378
3125860,-945
3125882,-855
3125926,-1010
3125945,-1558
3126055,-1683
3126141,-1442
3126187,-890
3126195,-867
3126216,-855
3126260,-941
3126279,-1410
3126301,-1468
3126345,-1281
3126366,-812
3126387,-804
3126432,-875
3126451,-814
3126472,-690
3126516,-574
3126535,-604
3126557,-785
3126601,-952
3126620,-742
3126641,-461
3126718,-339
3126726,-745
3126770,-810
3126789,-974
3126811,-976
3126854,-874
3126875,-791
3126897,-765
3126941,-536
3126960,184
3126981,158
3127025,-91
3127045,-137
3127067,-20
3127209,-151
3127256,-707
3127302,-3
3127316,-303
3127360,-136
3127380,606
3127402,306
3127446,-301
3127465,-368
3127486,-5
3127530,44
3127550,-260
3127572,-53
3127616,223
3127635,214
3127656,252
3127700,410
3127720,190
3127741,-152
3127785,-334
3127806,-265
3127827,-253
3127870,-166
3127890,259
3127927,303
3127970,208
3127976,270
3127997,374
3128039,321
3128060,22
3128081,47
3128123,108
3128128,54
3128146,-118
3128167,-258
3128209,-246
3128214,-117
3128233,-35
3128403,-107
3128485,-514
3128530,-1052
3128573,-1035
3128586,-752
3128627,-1035
3128632,-1382
3128651,-1406
3128672,-1081
3128714,-781
3128735,-1207
3128757,-1428
3128798,-1323
3128804,-1036
3128822,-826
3128843,-796
3128885,-903
3128906,-1334
3128928,-1464
3128969,-1364
3128975,-1117
3128993,-1011
3129031,-1158
3129073,-1340
3129079,-971
3129099,-748
3129141,-793
3129146,-947
3129164,-1011
3129184,-1028
3129226,-1197
3129232,-1488
3129250,-1623
3129272,-1465
3129314,-1269
3129335,-1534
3129356,-1534
3129497,-1163
3129543,-704
3129586,-1318
3129607,-848
3129649,-716
3129669,-1212
3129691,-1210
3129733,-919
3129738,-674
3129757,-735
3129778,-982
3129820,-1109
3129841,-715
3129862,-611
3129904,-695
3129927,-659
3129947,-417
3129989,-292
3129994,-390
3130012,-548
3130034,-582
3130109,-527
3130117,-990
3130159,-1007
3130164,-834
3130183,-673
3130204,-672
3130246,-771
3130267,-690
3130288,-553
3130330,-515
3130335,-562
3130354,-596
3130375,-523
3130417,-389
3130438,-357
3130460,-375
3130501,-305
3130506,-232
3130525,-346
3130635,-700
3130717,-548
3130761,-129
3130775,194
3130796,-53
3130838,-310
3130860,-314
3130882,-205
3130924,-216
3130944,-509
3130966,-516
3131007,-357
3131012,-174
3131031,-111
3131052,-228
3131094,-449
3131099,-659
3131137,-792
3131142,-809
3131184,-751
3131201,-664
3131223,-693
3131265,-693
3131270,-630
3131288,-563
3131310,-579
3131351,-635
3131374,-364
3131395,-61
3131437,100
3131457,-208
3131479,-296
3131521,-135
3131526,143
3131544,258
3131566,57
3131607,-319
3131612,-563
3131631,-509
3131652,-308
3131792,-227
3131838,-364
3131881,104
3131901,-153
3131943,-927
3131948,-1185
3131967,-661
3131988,-21
3132030,-89
3132052,-1525
3132074,-1370
3132115,-694
3132136,-666
3132157,-1153
3132232,-1129
3132242,-257
3132284,-796
3132306,-1019
3132326,-567
3132368,-218
3132373,-242
3132391,-605
3132413,-1017
3132455,-1151
3132460,-911
3132478,-525
3132498,-372
3132540,-597
3132545,-931
3132563,-1010
3132585,-773
3132627,-523
3132632,-522
3132650,-700
3132672,-788
3132713,-660
3132734,-330
3132756,-329
3132797,-343
3132802,-323
3132821,-292
3132932,-263
3133012,437
3133056,2105
3133071,2753
3133092,2946
3133134,3105
3133155,3431
3133177,3399
3133220,2969
3133563,1300
3133731,-1754
3133818,-1092
3133864,-1240
3133908,-1621
3133922,-1121
3134065,-765
3134111,-1172
3134156,-1323
3134172,-1292
3134216,-1344
3134236,-1131
3134258,-926
3134302,-872
3134321,-1249
3134342,-1344
3134386,-1281
3134406,-1044
3134428,-968
3134471,-922
3134492,-1055
3134513,-1196
3134557,-1222
3134577,-864
3134599,-762
3134642,-841
3134661,-977
3134683,-838
3134726,-667
3134747,-613
3134768,-643
3134812,-611
3134832,-539
3134854,-560
3134897,-602
3134916,-486
3134954,-268
3134998,-94
3135003,-512
3135023,-802
3135067,-708
3135087,49
3135199,-136
3135283,159
3135329,-214
3135338,-61
3135359,-76
3135403,-155
3135422,-430
3135443,-421
3135487,-227
3135507,116
3135529,46
3135572,-62
3135593,35
3135614,133
3135657,99
3135678,-337
3135699,-523
3135743,-556
3135762,-363
3135783,-299
3135827,-246
3135847,-89
3135869,-158
3135912,-370
3135933,-547
3135954,-383
3135998,-325
3136018,-1070
3136038,-1353
3136082,-1177
3136103,-479
3136141,-640
3136184,-955
3136190,-639
3136208,-297
3136350,-318
3136396,-1182
3136439,-1158
3136460,-1702
3136501,-1790
3136524,-1164
3136544,-1127
3136585,-1345
3136590,-1500
3136609,-1434
3136631,-1285
3136672,-1232
3136677,-1275
3136696,-1327
3136716,-1377
3136757,-1481
3136762,-1583
3136781,-1536
3136803,-1350
3136844,-1281
3136849,-1499
3136868,-1839
3136889,-1951
3136931,-1709
3136952,-1261
3136973,-1415
3137015,-1526
3137020,-1388
3137039,-1145
3137060,-1069
3137102,-1177
3137140,-1073
3137146,-876
3137187,-938
3137208,-1487
3137230,-1378
3137271,-1066
3137276,-914
3137295,-1070
3137316,-1287
3137358,-1314
3137379,-1266
3137490,-1412
3137571,-1023
3137615,-286
3137629,-1065
3137651,-1254
3137693,-1117
3137698,-966
3137716,-985
3137738,-1038
3137779,-975
3137800,-1064
3137822,-1272
3137863,-1183
3137869,-675
3137887,-112
3137908,14
3137950,-313
3137972,-507
3137994,-111
3138035,119
3138057,-379
3138077,-564
3138119,-525
3138124,-438
3138162,-452
3138167,-537
3138209,-570
3138228,-503
3138249,-529
3138291,-592
3138296,-646
3138314,-654
3138336,-624
3138378,-570
3138398,-693
3138420,-844
3138462,-846
3138467,-595
3138485,-218
3138507,-21
3138647,-186
3138692,-600
3138734,-785
3138757,-411
3138799,-267
3138820,-493
3138841,-655
3138883,-632
3138888,-473
3138906,-396
3138928,-493
3138970,-606
3138992,-394
3139014,-334
3139055,-460
3139077,-504
3139176,-360
3139220,-371
3139262,-195
3139268,-587
3139310,-451
3139349,-4
3139353,-138
3139395,-418
3139414,-531
3139435,-185
3139477,227
3139482,389
3139500,112
3139522,-408
3139563,-707
3139568,-499
3139586,-14
3139608,223
3139649,-29
3139654,-444
3139672,-522
3139782,-133
3139863,-40
3139906,-929
3139922,-578
3139943,-199
3139985,-144
3139990,-383
3140008,-559
3140030,-445
3140071,-207
3140076,-178
3140095,-468
3140116,-795
3140157,-816
3140178,-250
3140200,-212
3140241,-358
3140246,-407
3140265,-226
3140286,54
3140327,157
3140365,-44
3140371,-760
3140412,-825
3140417,-645
3140436,-409
3140457,-299
3140499,-302
3140504,-246
3140522,-7
3140544,328
3140585,560
3140590,597
3140608,526
3140630,467
3140671,488
3140676,589
3140695,788
3140716,1151
3140758,1655
3140779,2708
3140801,3214
3140941,3734
3140988,3904
3141033,1457
3141051,270
3141095,-142
3141115,-1208
3141135,-1452
3141179,-1395
3141200,-1357
3141221,-1481
3141265,-1426
3141284,-828
3141306,-765
3141349,-936
3141370,-1025
3141392,-776
3141468,-593
3141475,-1034
3141519,-1014
3141539,-764
3141561,-778
3141605,-883
3141624,-1015
3141645,-912
3141689,-735
3141709,-486
3141730,-423
3141774,-352
3141795,-276
3141816,-403
3141860,-566
3141879,-544
3141901,-363
3141945,-291
3141964,-633
3142075,-754
3142161,-720
3142207,-501
3142214,-188
3142236,181
3142280,363
3142299,135
3142320,171
3142364,331
3142385,244
3142406,12
3142450,-112
3142469,-107
3142490,-55
3142534,106
3142555,390
3142576,173
3142620,-130
3142639,82
3142677,349
3142721,242
3142726,-493
3142746,-372
3142790,41
3142809,371
3142831,277
3142874,322
3142895,546
3142916,413
3142960,239
3142979,225
3143001,155
3143044,-60
3143065,-233
3143087,58
3143229,432
3143276,486
3143321,565
3143336,191
3143380,122
3143400,464
3143422,670
3143466,695
3143485,283
3143506,175
3143550,246
3143569,352
3143591,183
3143635,13
3143655,73
3143677,134
3143720,94
3143739,155
3143762,436
3143806,665
3143825,398
3143847,217
3143891,275
3143930,495
3143935,253
3143978,-114
3143996,-365
3144017,-301
3144061,-303
3144080,-450
3144102,-490
3144145,-524
3144166,-554
3144188,-525
3144230,-539
3144251,-792
3144363,-912
3144445,-943
3144490,-581
3144501,-1065
3144522,-1291
3144565,-1148
3144585,-658
3144607,-840
3144649,-1046
3144670,-628
3144692,-421
3144734,-517
3144739,-706
3144757,-706
3144779,-532
3144821,-466
3144842,-965
3144863,-1166
3144906,-1203
3144926,-1118
3144948,-937
3144991,-716
3145011,-798
3145049,-945
3145092,-801
3145097,-36
3145119,-47
3145161,-325
3145182,-546
3145203,-467
3145246,-485
3145266,-615
3145288,-570
3145330,-591
3145352,-947
3145374,-919
3145515,-665
3145561,-442
3145604,-203
3145623,-733
3145666,-791
3145687,-294
3145708,-251
3145750,-427
3145756,-544
3145772,-429
3145794,-242
3145836,-252
3145841,-497
3145860,-731
3145881,-750
3145924,-614
3145945,-802
3145966,-1032
3146009,-1026
3146029,-512
3146051,-389
3146094,-343
3146114,-98
3146136,-112
3146211,-342
3146219,-625
3146262,-656
3146284,-1048
3146304,-968
3146347,-695
3146369,-622
3146391,-750
3146433,-649
3146454,-190
3146476,-303
3146518,-537
3146539,-594
3146649,-523
3146732,-484
3146777,115
3146788,12
3146811,-362
3146853,-491
3146874,147
3146896,187
3146938,-166
3146959,-596
3146980,-336
3147022,-114
3147043,-291
3147065,-332
3147107,-249
3147112,-181
3147131,-196
3147152,-202
3147194,-142
3147215,-253
3147236,-400
3147279,-373
3147300,-23
3147321,-85
3147396,-291
3147406,-310
3147448,-241
3147469,-207
3147491,-282
3147533,-472
3147553,-554
3147575,-159
3147617,252
3147622,324
3147641,25
3147662,-230
3147803,-40
3147849,-170
3147893,-527
3147912,-471
3147955,41
3147976,169
3147997,-48
3148040,-66
3148060,73
3148082,-115
3148124,-387
3148145,-617
3148166,-576
3148209,-507
3148214,-455
3148232,-464
3148252,-513
3148295,-494
3148300,-335
3148317,-159
3148340,-180
3148383,-434
3148403,-589
3148425,-239
3148467,48
3148488,-374
3148526,-594
3148568,-425
3148574,276
3148594,159
3148637,-187
3148657,-238
3148679,94
3148721,333
3148742,273
3148764,277
3148806,395
3148829,627
3148940,755
3149024,2185
3149070,3686
3149078,4358
3149099,4758
3149144,4691
3149164,3432
3149185,2971
3149230,2639
3149248,1002
3149270,-59
3149314,-698
3149334,-1060
3149355,-1435
3149400,-1799
3149418,-1391
3149439,-1027
3149484,-1035
3149504,-1358
3149525,-1070
3149570,-691
3149588,-751
3149609,-921
3149654,-855
3149693,-463
3149698,-508
3149743,-674
3149758,-831
3149780,-783
3149825,-704
3149844,-734
3149865,-888
3149910,-990
3149929,-590
3150127,-346
3150257,-289
3150305,-456
3150351,-295
3150364,-412
3150409,-274
3150428,4
3150449,-112
3150494,-342
3150513,-471
3150534,-359
3150579,-287
3150598,-136
3150620,-5
3150664,-14
3150683,-419
3150705,-391
3150750,-156
3150769,-70
3150790,-252
3150835,-277
3150852,57
3150875,86
3150920,47
3150937,119
3150960,59
3151005,-96
3151022,-90
3151060,100
3151105,248
3151111,286
3151129,232
3151273,166
3151321,-410
3151367,517
3151380,97
3151424,-121
3151444,700
3151465,1049
3151510,915
3151529,213
3151551,238
3151595,441
3151613,561
3151634,436
3151679,295
3151698,211
3151720,351
3151764,538
3151783,537
3151805,502
3151849,678
3151868,975
3151890,693
3151933,436
3151954,942
3151975,994
3152018,456
3152039,-428
3152060,-8
3152103,481
3152124,214
3152145,-40
3152188,-60
3152209,-160
3152230,-325
3152273,-362
3152410,-543
3152494,-301
3152539,-217
3152545,-814
3152565,-1086
3152608,-1117
3152628,-1012
3152650,-1049
3152693,-1072
3152714,-1019
3152735,-911
3152778,-688
3152799,-389
3152819,-560
3152862,-750
3152884,-528
3152905,-509
3152948,-808
3152969,-1234
3152990,-955
3153033,-677
3153054,-1108
3153074,-1385
3153117,-1285
3153138,-612
3153159,-696
3153202,-1114
3153223,-1518
3153245,-1096
3153288,-593
3153308,-692
3153330,-1026
3153373,-1024
3153394,-330
3153415,-325
3153557,-626
3153636,-563
3153681,-410
3153725,-896
3153731,-715
3153749,-470
3153792,-363
3153813,-522
3153834,-475
3153877,-301
3153898,-149
3153919,-230
3153962,-298
3153983,-355
3154004,-416
3154047,-438
3154068,-351
3154089,-412
3154132,-528
3154153,-383
3154175,-254
